*FILE_COMMENT ""
*FILE_MD5 ""
*FILE_MEMO ""
*FILE_OPERATOR "Administrator"
*FILE_PACKAGE_NAME ""
*FILE_PART_ID ""
*FILE_SAMPLE ""
*FILE_SYSTEM_NAME "SmartLab"
*FILE_TYPE "RAS_RAW"
*FILE_USERGROUP "Administrators"
*FILE_VERSION "1"
*HW_ATTACHMENT_ID "ATT0022"
*HW_ATTACHMENT_NAME "RxRy"
*HW_ATTACHMENT_NAME_INTERNAL "RxRy"
*HW_COUNTER_ID-0 "CUT0021"
*HW_COUNTER_ID-2 "CMC0020"
*HW_COUNTER_MONOCHRO_ID "CMC0020"
*HW_COUNTER_MONOCHRO_NAME "None"
*HW_COUNTER_MONOCHRO_NAME_INTERNAL "None"
*HW_COUNTER_NAME_INTERNAL "SC70"
*HW_COUNTER_NAME-0 "SC70"
*HW_COUNTER_NAME-1 "None"
*HW_COUNTER_NAME-2 "None"
*HW_COUNTER_SELECT_NAME "SC70"
*HW_EXTERNAL_CONTROLLER_NAME "None"
*HW_EXTERNAL_CONTROLLER_NAME_INTERNAL "None"
*HW_GONIOMETER_ID "GON0022"
*HW_GONIOMETER_NAME "StandardInplane"
*HW_GONIOMETER_NAME_INTERNAL "StandardInplaneEnc"
*HW_GONIOMETER_RADIUS-0 "90.0"
*HW_GONIOMETER_RADIUS-1 "114.0"
*HW_GONIOMETER_RADIUS-2 "190.0"
*HW_GONIOMETER_RADIUS-3 "300.0"
*HW_GONIOMETER_RADIUS-4 "187.0"
*HW_GONIOMETER_RADIUS-5 "300.0"
*HW_GONIOMETER_RADIUS-6 "113.0"
*HW_GONIOMETER_RADIUS-7 "331.0"
*HW_I_CBO_ID "CBO0021"
*HW_I_CBO_NAME "CBO"
*HW_I_CBO_NAME_INTERNAL "CBO"
*HW_I_MONOCHRO_ID "ICR0021"
*HW_I_MONOCHRO_NAME "Ge(220)x2"
*HW_I_MONOCHRO_NAME_INTERNAL "Ge(220)x2"
*HW_I_OPT_ID-1 "CBO0021"
*HW_I_OPT_ID-2 "ISL0021"
*HW_I_PRIMARY_NAME_INTERNAL "Standard"
*HW_I_SLIT_ID "ISL0021"
*HW_I_SLIT_NAME "Auto"
*HW_I_SLIT_NAME_INTERNAL "Auto"
*HW_R_ATTENUATER_AUTOMODE "1"
*HW_R_ATTENUATER_ID "ATN0021"
*HW_R_ATTENUATER_NAME "Auto"
*HW_R_ATTENUATOR_NAME_INTERNAL "Auto"
*HW_R_OPT_ID-0 "RSS0021"
*HW_R_OPT_ID-1 "RCR0022"
*HW_R_OPT_ID-2 "RSO0021"
*HW_R_OPT_ID-3 "RRS0021"
*HW_R_OPT_ID-4 "ATN0021"
*HW_R_ROD_ID "RCR0022"
*HW_R_ROD_NAME "ROD_adaptor"
*HW_R_ROD_NAME_INTERNAL "ROD_adaptor"
*HW_R_RPS_ID "RSO0021"
*HW_R_RPS_NAME "RPS_adaptor"
*HW_R_RPS_NAME_INTERNAL "RPS_adaptor"
*HW_R_RS_ID "RRS0021"
*HW_R_RS_NAME "Auto"
*HW_R_RS_NAME_INTERNAL "Auto"
*HW_R_SS_ID "RSS0021"
*HW_R_SS_NAME "Auto"
*HW_R_SS_NAME_INTERNAL "Auto"
*HW_ROBOT_NAME "No_unit"
*HW_ROBOT_NAME_INTERNAL "No_unit"
*HW_SAMPLE_CAMERA_NAME "None"
*HW_SAMPLE_CAMERA_NAME_INTERNAL "None"
*HW_SAMPLE_HOLDER_ID "SMP0021"
*HW_SAMPLE_HOLDER_NAME "Z_ChiPhi"
*HW_SAMPLE_HOLDER_NAME_INTERNAL "Z_ChiPhi"
*HW_SAMPLE_NAME "CenterSlit"
*HW_SAMPLE_NAME_INTERNAL "CenterSlit"
*HW_SAMPLE_PLATE_NAME "HeightReference"
*HW_SAMPLE_PLATE_NAME_INTERNAL "HeightReference"
*HW_SAMPLE_SPACER_NAME "None"
*HW_SAMPLE_SPACER_NAME_INTERNAL "None"
*HW_USERINFO_CATALOG_NO ""
*HW_USERINFO_INSTRUMENT_ID ""
*HW_USERINFO_INSTRUMENT_NAME ""
*HW_USERINFO_INSTRUMENT_NO ""
*HW_USERINFO_MODEL ""
*HW_USERINFO_ORDER_NO ""
*HW_USERINFO_SERIAL_NO ""
*HW_USERINFO_VERIFY_INSTRUMENT_ID "00-07-fe-01-03-ce"
*HW_VER_RCD_COUNTER_UNIT "1.0.1"
*HW_VER_RCD_CPU "3.3.7"
*HW_VER_RCD_FPGA "1.2.2"
*HW_VER_RCD_GONIO_UNIT "6.2.0"
*HW_VER_RCD_INCIDENT_UNIT "6.2.0"
*HW_VER_RCD_RECEIVING_UNIT "6.2.0"
*HW_VER_RCD_TYPE "RINC"
*HW_VER_XGC_CPU "3.3.7"
*HW_VER_XGC_CW "1.2.0"
*HW_VER_XGC_HV "1.2.0"
*HW_VER_XGC_RS1 "1.3.4"
*HW_VER_XGC_RS2 "N/A"
*HW_VER_XGC_RT "1.2.0"
*HW_VER_XGC_TYPE "RINC"
*HW_XG_CURRENT_UNIT "mA"
*HW_XG_FOCUS "0.4mm x 8mm"
*HW_XG_FOCUS_TYPE "Fine"
*HW_XG_TARGET_ATOMIC_NUMBER "29"
*HW_XG_TARGET_NAME "Cu"
*HW_XG_TYPE "ROTA"
*HW_XG_VOLTAGE_UNIT "kV"
*HW_XG_WAVE_LENGTH_ALPHA1 "1.540593"
*HW_XG_WAVE_LENGTH_ALPHA2 "1.544414"
*HW_XG_WAVE_LENGTH_BETA "1.392246"
*HW_XG_WAVE_LENGTH_UNIT "Angstrom"
*MEAS_COND_AXIS_NAME_INTERNAL-0 "ThetaS"
*MEAS_COND_AXIS_NAME_INTERNAL-1 "ThetaD"
*MEAS_COND_AXIS_NAME_INTERNAL-10 "PrimaryGeometry"
*MEAS_COND_AXIS_NAME_INTERNAL-100 "IncidentMonochromator"
*MEAS_COND_AXIS_NAME_INTERNAL-101 "ReceivingOptics"
*MEAS_COND_AXIS_NAME_INTERNAL-102 "CounterMonochromatorKind"
*MEAS_COND_AXIS_NAME_INTERNAL-11 "PrimaryMirrorType"
*MEAS_COND_AXIS_NAME_INTERNAL-12 "CBOType"
*MEAS_COND_AXIS_NAME_INTERNAL-13 "CBO-M"
*MEAS_COND_AXIS_NAME_INTERNAL-14 "CBO"
*MEAS_COND_AXIS_NAME_INTERNAL-15 "IncidentMonochromator-OmegaM"
*MEAS_COND_AXIS_NAME_INTERNAL-16 "IncidentSollerSlit"
*MEAS_COND_AXIS_NAME_INTERNAL-17 "IncidentSlitBox"
*MEAS_COND_AXIS_NAME_INTERNAL-18 "IncidentSlitBox"
*MEAS_COND_AXIS_NAME_INTERNAL-19 "IncidentSlitBox"
*MEAS_COND_AXIS_NAME_INTERNAL-2 "TwoTheta"
*MEAS_COND_AXIS_NAME_INTERNAL-20 "Zs"
*MEAS_COND_AXIS_NAME_INTERNAL-21 "IncidentAxdSlit"
*MEAS_COND_AXIS_NAME_INTERNAL-22 "IncidentAxdSlit"
*MEAS_COND_AXIS_NAME_INTERNAL-23 "IncidentAxdSlit"
*MEAS_COND_AXIS_NAME_INTERNAL-24 "Chi"
*MEAS_COND_AXIS_NAME_INTERNAL-25 "Phi"
*MEAS_COND_AXIS_NAME_INTERNAL-26 "Z"
*MEAS_COND_AXIS_NAME_INTERNAL-27 "Alpha"
*MEAS_COND_AXIS_NAME_INTERNAL-28 "Beta"
*MEAS_COND_AXIS_NAME_INTERNAL-29 "TwoThetaChiPhi"
*MEAS_COND_AXIS_NAME_INTERNAL-3 "Omega"
*MEAS_COND_AXIS_NAME_INTERNAL-30 "AlphaI"
*MEAS_COND_AXIS_NAME_INTERNAL-31 "BetaI"
*MEAS_COND_AXIS_NAME_INTERNAL-32 "TwoThetaB"
*MEAS_COND_AXIS_NAME_INTERNAL-33 "Rx"
*MEAS_COND_AXIS_NAME_INTERNAL-34 "Ry"
*MEAS_COND_AXIS_NAME_INTERNAL-35 "ReceivingSlitBox1"
*MEAS_COND_AXIS_NAME_INTERNAL-36 "ReceivingSlitBox1"
*MEAS_COND_AXIS_NAME_INTERNAL-37 "ReceivingSlitBox1"
*MEAS_COND_AXIS_NAME_INTERNAL-38 "Filter"
*MEAS_COND_AXIS_NAME_INTERNAL-39 "PSA"
*MEAS_COND_AXIS_NAME_INTERNAL-4 "TwoThetaTheta"
*MEAS_COND_AXIS_NAME_INTERNAL-40 "ReceivingSollerSlit"
*MEAS_COND_AXIS_NAME_INTERNAL-41 "ReceivingSlitBox2"
*MEAS_COND_AXIS_NAME_INTERNAL-42 "ReceivingSlitBox2"
*MEAS_COND_AXIS_NAME_INTERNAL-43 "ReceivingSlitBox2"
*MEAS_COND_AXIS_NAME_INTERNAL-44 "ReceivingSlitBox2-Zd"
*MEAS_COND_AXIS_NAME_INTERNAL-45 "Filter2"
*MEAS_COND_AXIS_NAME_INTERNAL-46 "Attenuator"
*MEAS_COND_AXIS_NAME_INTERNAL-47 "HV"
*MEAS_COND_AXIS_NAME_INTERNAL-48 "PHA"
*MEAS_COND_AXIS_NAME_INTERNAL-49 "DedicatedHolder"
*MEAS_COND_AXIS_NAME_INTERNAL-5 "TwoThetaOmega"
*MEAS_COND_AXIS_NAME_INTERNAL-50 "Target_TargetTime"
*MEAS_COND_AXIS_NAME_INTERNAL-51 "Target_XrayOnTime"
*MEAS_COND_AXIS_NAME_INTERNAL-52 "Target_TMPTime"
*MEAS_COND_AXIS_NAME_INTERNAL-53 "Target_RPTime"
*MEAS_COND_AXIS_NAME_INTERNAL-54 "Target_FilamentTime"
*MEAS_COND_AXIS_NAME_INTERNAL-55 "Target_IG"
*MEAS_COND_AXIS_NAME_INTERNAL-56 "Target_GP"
*MEAS_COND_AXIS_NAME_INTERNAL-57 "Target_FC"
*MEAS_COND_AXIS_NAME_INTERNAL-58 "HVPS_Bias"
*MEAS_COND_AXIS_NAME_INTERNAL-59 "HVPS_HVPSTime"
*MEAS_COND_AXIS_NAME_INTERNAL-6 "OmegaTwoTheta"
*MEAS_COND_AXIS_NAME_INTERNAL-60 "HVPS_Type1Time"
*MEAS_COND_AXIS_NAME_INTERNAL-61 "HVPS_Type2Time"
*MEAS_COND_AXIS_NAME_INTERNAL-62 "HVPS_Type3Time"
*MEAS_COND_AXIS_NAME_INTERNAL-63 "CW_IERTime"
*MEAS_COND_AXIS_NAME_INTERNAL-64 "CW_ECTime"
*MEAS_COND_AXIS_NAME_INTERNAL-65 "CW_Flow1"
*MEAS_COND_AXIS_NAME_INTERNAL-66 "CW_Temperature1"
*MEAS_COND_AXIS_NAME_INTERNAL-67 "CW_Pressure1"
*MEAS_COND_AXIS_NAME_INTERNAL-68 "CW_PressureIn"
*MEAS_COND_AXIS_NAME_INTERNAL-69 "CW_PressureOut"
*MEAS_COND_AXIS_NAME_INTERNAL-7 "TwoThetaChi"
*MEAS_COND_AXIS_NAME_INTERNAL-70 "CW_Flow2"
*MEAS_COND_AXIS_NAME_INTERNAL-71 "CW_Temperature2"
*MEAS_COND_AXIS_NAME_INTERNAL-72 "CW_Pressure2"
*MEAS_COND_AXIS_NAME_INTERNAL-73 "RE_EnclosureTemp"
*MEAS_COND_AXIS_NAME_INTERNAL-74 "RE_EnclosureHummidity"
*MEAS_COND_AXIS_NAME_INTERNAL-75 "RE_CabinetTemp"
*MEAS_COND_AXIS_NAME_INTERNAL-76 "RE_RPTemp"
*MEAS_COND_AXIS_NAME_INTERNAL-77 "RE_ShutterAXrayOnTime"
*MEAS_COND_AXIS_NAME_INTERNAL-78 "RE_ShutterATimes"
*MEAS_COND_AXIS_NAME_INTERNAL-79 "RE_ShutterAOpenCloseTime"
*MEAS_COND_AXIS_NAME_INTERNAL-8 "GonioDirectBeamStop"
*MEAS_COND_AXIS_NAME_INTERNAL-80 "RE_ShutterACloseOpenTime"
*MEAS_COND_AXIS_NAME_INTERNAL-81 "RE_ShutterBXrayOnTime"
*MEAS_COND_AXIS_NAME_INTERNAL-82 "RE_ShutterBTimes"
*MEAS_COND_AXIS_NAME_INTERNAL-83 "RE_ShutterBOpenCloseTime"
*MEAS_COND_AXIS_NAME_INTERNAL-84 "RE_ShutterBCloseOpenTime"
*MEAS_COND_AXIS_NAME_INTERNAL-85 "RE_XrayWarningRamp"
*MEAS_COND_AXIS_NAME_INTERNAL-86 "RE_ShutterAInstallation"
*MEAS_COND_AXIS_NAME_INTERNAL-87 "RE_ShutterARamp"
*MEAS_COND_AXIS_NAME_INTERNAL-88 "RE_ShutterBInstallation"
*MEAS_COND_AXIS_NAME_INTERNAL-89 "RE_ShutterBRamp"
*MEAS_COND_AXIS_NAME_INTERNAL-9 "Ts"
*MEAS_COND_AXIS_NAME_INTERNAL-90 "RE_ExtShutterCLS"
*MEAS_COND_AXIS_NAME_INTERNAL-91 "RE_ExtXrayOFF"
*MEAS_COND_AXIS_NAME_INTERNAL-92 "RE_ExtSafetyCircuit"
*MEAS_COND_AXIS_NAME_INTERNAL-93 "Version_CPU"
*MEAS_COND_AXIS_NAME_INTERNAL-94 "Version_RS1"
*MEAS_COND_AXIS_NAME_INTERNAL-95 "Version_RS2"
*MEAS_COND_AXIS_NAME_INTERNAL-96 "Version_HV"
*MEAS_COND_AXIS_NAME_INTERNAL-97 "Version_CW"
*MEAS_COND_AXIS_NAME_INTERNAL-98 "Version_RT"
*MEAS_COND_AXIS_NAME_INTERNAL-99 "IncidentPrimary"
*MEAS_COND_AXIS_NAME-0 "ThetaS"
*MEAS_COND_AXIS_NAME-1 "ThetaD"
*MEAS_COND_AXIS_NAME-10 "PrimaryGeometry"
*MEAS_COND_AXIS_NAME-100 "IncidentMonochromator"
*MEAS_COND_AXIS_NAME-101 "ReceivingOptics"
*MEAS_COND_AXIS_NAME-102 "CounterMonochromatorKind"
*MEAS_COND_AXIS_NAME-11 "PrimaryMirrorType"
*MEAS_COND_AXIS_NAME-12 "CBOType"
*MEAS_COND_AXIS_NAME-13 "CBO-M"
*MEAS_COND_AXIS_NAME-14 "CBO"
*MEAS_COND_AXIS_NAME-15 "IncidentMonochromator-OmegaM"
*MEAS_COND_AXIS_NAME-16 "IncidentSollerSlit"
*MEAS_COND_AXIS_NAME-17 "IncidentSlitBox"
*MEAS_COND_AXIS_NAME-18 "IncidentSlitBox-_Axis"
*MEAS_COND_AXIS_NAME-19 "SlitDS"
*MEAS_COND_AXIS_NAME-2 "TwoTheta"
*MEAS_COND_AXIS_NAME-20 "Zs"
*MEAS_COND_AXIS_NAME-21 "IncidentAxdSlit"
*MEAS_COND_AXIS_NAME-22 "LLS"
*MEAS_COND_AXIS_NAME-23 "DHLSlit"
*MEAS_COND_AXIS_NAME-24 "Chi"
*MEAS_COND_AXIS_NAME-25 "Phi"
*MEAS_COND_AXIS_NAME-26 "Z"
*MEAS_COND_AXIS_NAME-27 "Alpha"
*MEAS_COND_AXIS_NAME-28 "Beta"
*MEAS_COND_AXIS_NAME-29 "TwoThetaChiPhi"
*MEAS_COND_AXIS_NAME-3 "Omega"
*MEAS_COND_AXIS_NAME-30 "AlphaI"
*MEAS_COND_AXIS_NAME-31 "BetaI"
*MEAS_COND_AXIS_NAME-32 "TwoThetaB"
*MEAS_COND_AXIS_NAME-33 "Rx"
*MEAS_COND_AXIS_NAME-34 "Ry"
*MEAS_COND_AXIS_NAME-35 "ReceivingSlitBox1"
*MEAS_COND_AXIS_NAME-36 "ReceivingSlitBox1-_Axis"
*MEAS_COND_AXIS_NAME-37 "SlitSS"
*MEAS_COND_AXIS_NAME-38 "Filter"
*MEAS_COND_AXIS_NAME-39 "PSA"
*MEAS_COND_AXIS_NAME-4 "TwoThetaTheta"
*MEAS_COND_AXIS_NAME-40 "ReceivingSollerSlit"
*MEAS_COND_AXIS_NAME-41 "ReceivingSlitBox2"
*MEAS_COND_AXIS_NAME-42 "ReceivingSlitBox2-_Axis"
*MEAS_COND_AXIS_NAME-43 "SlitRS"
*MEAS_COND_AXIS_NAME-44 "ReceivingSlitBox2-Zd"
*MEAS_COND_AXIS_NAME-45 "Filter2"
*MEAS_COND_AXIS_NAME-46 "Attenuator"
*MEAS_COND_AXIS_NAME-47 "HV"
*MEAS_COND_AXIS_NAME-48 "PHA"
*MEAS_COND_AXIS_NAME-49 "DedicatedHolder"
*MEAS_COND_AXIS_NAME-5 "TwoThetaOmega"
*MEAS_COND_AXIS_NAME-50 "Target_TargetTime"
*MEAS_COND_AXIS_NAME-51 "Target_XrayOnTime"
*MEAS_COND_AXIS_NAME-52 "Target_TMPTime"
*MEAS_COND_AXIS_NAME-53 "Target_RPTime"
*MEAS_COND_AXIS_NAME-54 "Target_FilamentTime"
*MEAS_COND_AXIS_NAME-55 "Target_IG"
*MEAS_COND_AXIS_NAME-56 "Target_GP"
*MEAS_COND_AXIS_NAME-57 "Target_FC"
*MEAS_COND_AXIS_NAME-58 "HVPS_Bias"
*MEAS_COND_AXIS_NAME-59 "HVPS_HVPSTime"
*MEAS_COND_AXIS_NAME-6 "OmegaTwoTheta"
*MEAS_COND_AXIS_NAME-60 "HVPS_Type1Time"
*MEAS_COND_AXIS_NAME-61 "HVPS_Type2Time"
*MEAS_COND_AXIS_NAME-62 "HVPS_Type3Time"
*MEAS_COND_AXIS_NAME-63 "CW_IERTime"
*MEAS_COND_AXIS_NAME-64 "CW_ECTime"
*MEAS_COND_AXIS_NAME-65 "CW_Flow1"
*MEAS_COND_AXIS_NAME-66 "CW_Temperature1"
*MEAS_COND_AXIS_NAME-67 "CW_Pressure1"
*MEAS_COND_AXIS_NAME-68 "CW_PressureIn"
*MEAS_COND_AXIS_NAME-69 "CW_PressureOut"
*MEAS_COND_AXIS_NAME-7 "TwoThetaChi"
*MEAS_COND_AXIS_NAME-70 "CW_Flow2"
*MEAS_COND_AXIS_NAME-71 "CW_Temperature2"
*MEAS_COND_AXIS_NAME-72 "CW_Pressure2"
*MEAS_COND_AXIS_NAME-73 "RE_EnclosureTemp"
*MEAS_COND_AXIS_NAME-74 "RE_EnclosureHummidity"
*MEAS_COND_AXIS_NAME-75 "RE_CabinetTemp"
*MEAS_COND_AXIS_NAME-76 "RE_RPTemp"
*MEAS_COND_AXIS_NAME-77 "RE_ShutterAXrayOnTime"
*MEAS_COND_AXIS_NAME-78 "RE_ShutterATimes"
*MEAS_COND_AXIS_NAME-79 "RE_ShutterAOpenCloseTime"
*MEAS_COND_AXIS_NAME-8 "GonioDirectBeamStop"
*MEAS_COND_AXIS_NAME-80 "RE_ShutterACloseOpenTime"
*MEAS_COND_AXIS_NAME-81 "RE_ShutterBXrayOnTime"
*MEAS_COND_AXIS_NAME-82 "RE_ShutterBTimes"
*MEAS_COND_AXIS_NAME-83 "RE_ShutterBOpenCloseTime"
*MEAS_COND_AXIS_NAME-84 "RE_ShutterBCloseOpenTime"
*MEAS_COND_AXIS_NAME-85 "RE_XrayWarningRamp"
*MEAS_COND_AXIS_NAME-86 "RE_ShutterAInstallation"
*MEAS_COND_AXIS_NAME-87 "RE_ShutterARamp"
*MEAS_COND_AXIS_NAME-88 "RE_ShutterBInstallation"
*MEAS_COND_AXIS_NAME-89 "RE_ShutterBRamp"
*MEAS_COND_AXIS_NAME-9 "Ts"
*MEAS_COND_AXIS_NAME-90 "RE_ExtShutterCLS"
*MEAS_COND_AXIS_NAME-91 "RE_ExtXrayOFF"
*MEAS_COND_AXIS_NAME-92 "RE_ExtSafetyCircuit"
*MEAS_COND_AXIS_NAME-93 "Version_CPU"
*MEAS_COND_AXIS_NAME-94 "Version_RS1"
*MEAS_COND_AXIS_NAME-95 "Version_RS2"
*MEAS_COND_AXIS_NAME-96 "Version_HV"
*MEAS_COND_AXIS_NAME-97 "Version_CW"
*MEAS_COND_AXIS_NAME-98 "Version_RT"
*MEAS_COND_AXIS_NAME-99 "IncidentPrimary"
*MEAS_COND_AXIS_OFFSET-0 "1.0981"
*MEAS_COND_AXIS_OFFSET-1 "0.136"
*MEAS_COND_AXIS_OFFSET-10 "0"
*MEAS_COND_AXIS_OFFSET-100 "0"
*MEAS_COND_AXIS_OFFSET-101 "0"
*MEAS_COND_AXIS_OFFSET-102 "0"
*MEAS_COND_AXIS_OFFSET-11 "0"
*MEAS_COND_AXIS_OFFSET-12 "0"
*MEAS_COND_AXIS_OFFSET-13 "0"
*MEAS_COND_AXIS_OFFSET-14 "0"
*MEAS_COND_AXIS_OFFSET-15 "0"
*MEAS_COND_AXIS_OFFSET-16 "0"
*MEAS_COND_AXIS_OFFSET-17 "0"
*MEAS_COND_AXIS_OFFSET-18 "0"
*MEAS_COND_AXIS_OFFSET-19 "0"
*MEAS_COND_AXIS_OFFSET-2 "1.2341"
*MEAS_COND_AXIS_OFFSET-20 "0"
*MEAS_COND_AXIS_OFFSET-21 "0"
*MEAS_COND_AXIS_OFFSET-22 "0"
*MEAS_COND_AXIS_OFFSET-23 "0"
*MEAS_COND_AXIS_OFFSET-24 "0"
*MEAS_COND_AXIS_OFFSET-25 "0"
*MEAS_COND_AXIS_OFFSET-26 "0"
*MEAS_COND_AXIS_OFFSET-27 "0"
*MEAS_COND_AXIS_OFFSET-28 "0"
*MEAS_COND_AXIS_OFFSET-29 "0"
*MEAS_COND_AXIS_OFFSET-3 "1.0981"
*MEAS_COND_AXIS_OFFSET-30 "0"
*MEAS_COND_AXIS_OFFSET-31 "0"
*MEAS_COND_AXIS_OFFSET-32 "0"
*MEAS_COND_AXIS_OFFSET-33 "0"
*MEAS_COND_AXIS_OFFSET-34 "0"
*MEAS_COND_AXIS_OFFSET-35 "0"
*MEAS_COND_AXIS_OFFSET-36 "0"
*MEAS_COND_AXIS_OFFSET-37 "0"
*MEAS_COND_AXIS_OFFSET-38 "0"
*MEAS_COND_AXIS_OFFSET-39 "0"
*MEAS_COND_AXIS_OFFSET-4 "0"
*MEAS_COND_AXIS_OFFSET-40 "0"
*MEAS_COND_AXIS_OFFSET-41 "0"
*MEAS_COND_AXIS_OFFSET-42 "0"
*MEAS_COND_AXIS_OFFSET-43 "0"
*MEAS_COND_AXIS_OFFSET-44 "0"
*MEAS_COND_AXIS_OFFSET-45 "0"
*MEAS_COND_AXIS_OFFSET-46 "0"
*MEAS_COND_AXIS_OFFSET-47 "0"
*MEAS_COND_AXIS_OFFSET-48 "0"
*MEAS_COND_AXIS_OFFSET-49 "0"
*MEAS_COND_AXIS_OFFSET-5 "0"
*MEAS_COND_AXIS_OFFSET-50 "0"
*MEAS_COND_AXIS_OFFSET-51 "0"
*MEAS_COND_AXIS_OFFSET-52 "0"
*MEAS_COND_AXIS_OFFSET-53 "0"
*MEAS_COND_AXIS_OFFSET-54 "0"
*MEAS_COND_AXIS_OFFSET-55 "0"
*MEAS_COND_AXIS_OFFSET-56 "0"
*MEAS_COND_AXIS_OFFSET-57 "0"
*MEAS_COND_AXIS_OFFSET-58 "0"
*MEAS_COND_AXIS_OFFSET-59 "0"
*MEAS_COND_AXIS_OFFSET-6 "0"
*MEAS_COND_AXIS_OFFSET-60 "0"
*MEAS_COND_AXIS_OFFSET-61 "0"
*MEAS_COND_AXIS_OFFSET-62 "0"
*MEAS_COND_AXIS_OFFSET-63 "0"
*MEAS_COND_AXIS_OFFSET-64 "0"
*MEAS_COND_AXIS_OFFSET-65 "0"
*MEAS_COND_AXIS_OFFSET-66 "0"
*MEAS_COND_AXIS_OFFSET-67 "0"
*MEAS_COND_AXIS_OFFSET-68 "0"
*MEAS_COND_AXIS_OFFSET-69 "0"
*MEAS_COND_AXIS_OFFSET-7 "0"
*MEAS_COND_AXIS_OFFSET-70 "0"
*MEAS_COND_AXIS_OFFSET-71 "0"
*MEAS_COND_AXIS_OFFSET-72 "0"
*MEAS_COND_AXIS_OFFSET-73 "0"
*MEAS_COND_AXIS_OFFSET-74 "0"
*MEAS_COND_AXIS_OFFSET-75 "0"
*MEAS_COND_AXIS_OFFSET-76 "0"
*MEAS_COND_AXIS_OFFSET-77 "0"
*MEAS_COND_AXIS_OFFSET-78 "0"
*MEAS_COND_AXIS_OFFSET-79 "0"
*MEAS_COND_AXIS_OFFSET-8 "0"
*MEAS_COND_AXIS_OFFSET-80 "0"
*MEAS_COND_AXIS_OFFSET-81 "0"
*MEAS_COND_AXIS_OFFSET-82 "0"
*MEAS_COND_AXIS_OFFSET-83 "0"
*MEAS_COND_AXIS_OFFSET-84 "0"
*MEAS_COND_AXIS_OFFSET-85 "0"
*MEAS_COND_AXIS_OFFSET-86 "0"
*MEAS_COND_AXIS_OFFSET-87 "0"
*MEAS_COND_AXIS_OFFSET-88 "0"
*MEAS_COND_AXIS_OFFSET-89 "0"
*MEAS_COND_AXIS_OFFSET-9 "0"
*MEAS_COND_AXIS_OFFSET-90 "0"
*MEAS_COND_AXIS_OFFSET-91 "0"
*MEAS_COND_AXIS_OFFSET-92 "0"
*MEAS_COND_AXIS_OFFSET-93 "0"
*MEAS_COND_AXIS_OFFSET-94 "0"
*MEAS_COND_AXIS_OFFSET-95 "0"
*MEAS_COND_AXIS_OFFSET-96 "0"
*MEAS_COND_AXIS_OFFSET-97 "0"
*MEAS_COND_AXIS_OFFSET-98 "0"
*MEAS_COND_AXIS_OFFSET-99 "0"
*MEAS_COND_AXIS_POSITION-0 "16.6276"
*MEAS_COND_AXIS_POSITION-1 "16.5190"
*MEAS_COND_AXIS_POSITION-10 "Right"
*MEAS_COND_AXIS_POSITION-100 "Ge(220)x2"
*MEAS_COND_AXIS_POSITION-101 "PSA_open"
*MEAS_COND_AXIS_POSITION-102 "None"
*MEAS_COND_AXIS_POSITION-11 "None"
*MEAS_COND_AXIS_POSITION-12 "Type1"
*MEAS_COND_AXIS_POSITION-13 "0"
*MEAS_COND_AXIS_POSITION-14 "PB"
*MEAS_COND_AXIS_POSITION-15 "0"
*MEAS_COND_AXIS_POSITION-16 "Soller_slit_open_s"
*MEAS_COND_AXIS_POSITION-17 "0.500mm"
*MEAS_COND_AXIS_POSITION-18 "0.500000"
*MEAS_COND_AXIS_POSITION-19 "0.500mm"
*MEAS_COND_AXIS_POSITION-2 "33.1466"
*MEAS_COND_AXIS_POSITION-20 "-1.9850000"
*MEAS_COND_AXIS_POSITION-21 "2mm"
*MEAS_COND_AXIS_POSITION-22 "2mm"
*MEAS_COND_AXIS_POSITION-23 "2mm"
*MEAS_COND_AXIS_POSITION-24 "38.300"
*MEAS_COND_AXIS_POSITION-25 "60.156"
*MEAS_COND_AXIS_POSITION-26 "-1.3216"
*MEAS_COND_AXIS_POSITION-27 "51.700"
*MEAS_COND_AXIS_POSITION-28 "60.156"
*MEAS_COND_AXIS_POSITION-29 "-0.164"
*MEAS_COND_AXIS_POSITION-3 "16.6276"
*MEAS_COND_AXIS_POSITION-30 "89.70"
*MEAS_COND_AXIS_POSITION-31 "49.614"
*MEAS_COND_AXIS_POSITION-32 "33.1470"
*MEAS_COND_AXIS_POSITION-33 "-0.10692"
*MEAS_COND_AXIS_POSITION-34 "0.78524"
*MEAS_COND_AXIS_POSITION-35 "1.000mm"
*MEAS_COND_AXIS_POSITION-36 "1.000000"
*MEAS_COND_AXIS_POSITION-37 "1.000mm"
*MEAS_COND_AXIS_POSITION-38 "None"
*MEAS_COND_AXIS_POSITION-39 "PSA_open"
*MEAS_COND_AXIS_POSITION-4 "33.1466"
*MEAS_COND_AXIS_POSITION-40 "Soller_slit_5.0deg"
*MEAS_COND_AXIS_POSITION-41 "1.000mm"
*MEAS_COND_AXIS_POSITION-42 "1.000000"
*MEAS_COND_AXIS_POSITION-43 "1.000mm"
*MEAS_COND_AXIS_POSITION-44 "-0.5243750"
*MEAS_COND_AXIS_POSITION-45 "None"
*MEAS_COND_AXIS_POSITION-46 "Open"
*MEAS_COND_AXIS_POSITION-47 "647.0"
*MEAS_COND_AXIS_POSITION-48 "545.00"
*MEAS_COND_AXIS_POSITION-49 "None"
*MEAS_COND_AXIS_POSITION-5 "33.1466"
*MEAS_COND_AXIS_POSITION-6 "16.6276"
*MEAS_COND_AXIS_POSITION-7 "-0.1660"
*MEAS_COND_AXIS_POSITION-8 "None"
*MEAS_COND_AXIS_POSITION-9 "-5.4780000"
*MEAS_COND_AXIS_POSITION-99 "Standard"
*MEAS_COND_AXIS_RESOLUTION-0 "0.0001"
*MEAS_COND_AXIS_RESOLUTION-1 "0.0001"
*MEAS_COND_AXIS_RESOLUTION-10 ""
*MEAS_COND_AXIS_RESOLUTION-11 ""
*MEAS_COND_AXIS_RESOLUTION-12 ""
*MEAS_COND_AXIS_RESOLUTION-13 "1"
*MEAS_COND_AXIS_RESOLUTION-14 ""
*MEAS_COND_AXIS_RESOLUTION-15 "1"
*MEAS_COND_AXIS_RESOLUTION-16 ""
*MEAS_COND_AXIS_RESOLUTION-17 "1/1600"
*MEAS_COND_AXIS_RESOLUTION-18 "1/1600"
*MEAS_COND_AXIS_RESOLUTION-19 "1/1600"
*MEAS_COND_AXIS_RESOLUTION-2 "0.0001"
*MEAS_COND_AXIS_RESOLUTION-20 "0.0003125"
*MEAS_COND_AXIS_RESOLUTION-21 ""
*MEAS_COND_AXIS_RESOLUTION-22 ""
*MEAS_COND_AXIS_RESOLUTION-23 ""
*MEAS_COND_AXIS_RESOLUTION-24 "0.001"
*MEAS_COND_AXIS_RESOLUTION-25 "0.002"
*MEAS_COND_AXIS_RESOLUTION-26 "0.0001"
*MEAS_COND_AXIS_RESOLUTION-27 "0.001"
*MEAS_COND_AXIS_RESOLUTION-28 "0.002"
*MEAS_COND_AXIS_RESOLUTION-29 "0.004"
*MEAS_COND_AXIS_RESOLUTION-3 "0.0001"
*MEAS_COND_AXIS_RESOLUTION-30 "0.01"
*MEAS_COND_AXIS_RESOLUTION-31 "0.002"
*MEAS_COND_AXIS_RESOLUTION-32 "0.0001"
*MEAS_COND_AXIS_RESOLUTION-33 "0.00099"
*MEAS_COND_AXIS_RESOLUTION-34 "0.00134"
*MEAS_COND_AXIS_RESOLUTION-35 "1/1600"
*MEAS_COND_AXIS_RESOLUTION-36 "1/1600"
*MEAS_COND_AXIS_RESOLUTION-37 "1/1600"
*MEAS_COND_AXIS_RESOLUTION-38 ""
*MEAS_COND_AXIS_RESOLUTION-39 ""
*MEAS_COND_AXIS_RESOLUTION-4 "0.0002"
*MEAS_COND_AXIS_RESOLUTION-40 ""
*MEAS_COND_AXIS_RESOLUTION-41 "1/1600"
*MEAS_COND_AXIS_RESOLUTION-42 "1/1600"
*MEAS_COND_AXIS_RESOLUTION-43 "1/1600"
*MEAS_COND_AXIS_RESOLUTION-44 "0.0003125"
*MEAS_COND_AXIS_RESOLUTION-45 ""
*MEAS_COND_AXIS_RESOLUTION-46 "1/800"
*MEAS_COND_AXIS_RESOLUTION-47 "0.5"
*MEAS_COND_AXIS_RESOLUTION-48 "1.25"
*MEAS_COND_AXIS_RESOLUTION-49 ""
*MEAS_COND_AXIS_RESOLUTION-5 "0.0002"
*MEAS_COND_AXIS_RESOLUTION-50 "0.010000"
*MEAS_COND_AXIS_RESOLUTION-51 "0.010000"
*MEAS_COND_AXIS_RESOLUTION-52 "0.01"
*MEAS_COND_AXIS_RESOLUTION-53 "0.010000"
*MEAS_COND_AXIS_RESOLUTION-54 "0.01"
*MEAS_COND_AXIS_RESOLUTION-55 "1.000000"
*MEAS_COND_AXIS_RESOLUTION-56 "1.000000"
*MEAS_COND_AXIS_RESOLUTION-57 "1"
*MEAS_COND_AXIS_RESOLUTION-58 "1"
*MEAS_COND_AXIS_RESOLUTION-59 "0.01"
*MEAS_COND_AXIS_RESOLUTION-6 "0.0001"
*MEAS_COND_AXIS_RESOLUTION-60 "0.01"
*MEAS_COND_AXIS_RESOLUTION-61 "0.01"
*MEAS_COND_AXIS_RESOLUTION-62 "0.01"
*MEAS_COND_AXIS_RESOLUTION-63 "0.010000"
*MEAS_COND_AXIS_RESOLUTION-64 "1"
*MEAS_COND_AXIS_RESOLUTION-65 "0.1"
*MEAS_COND_AXIS_RESOLUTION-66 "1"
*MEAS_COND_AXIS_RESOLUTION-67 "0.010000"
*MEAS_COND_AXIS_RESOLUTION-68 "0.01"
*MEAS_COND_AXIS_RESOLUTION-69 "0.01"
*MEAS_COND_AXIS_RESOLUTION-7 "0.0005"
*MEAS_COND_AXIS_RESOLUTION-70 "0.100000"
*MEAS_COND_AXIS_RESOLUTION-71 "1.000000"
*MEAS_COND_AXIS_RESOLUTION-72 "0.01"
*MEAS_COND_AXIS_RESOLUTION-73 "1.000000"
*MEAS_COND_AXIS_RESOLUTION-74 "1"
*MEAS_COND_AXIS_RESOLUTION-75 "1.000000"
*MEAS_COND_AXIS_RESOLUTION-76 "1"
*MEAS_COND_AXIS_RESOLUTION-77 "0.01"
*MEAS_COND_AXIS_RESOLUTION-78 "1"
*MEAS_COND_AXIS_RESOLUTION-79 "1"
*MEAS_COND_AXIS_RESOLUTION-8 ""
*MEAS_COND_AXIS_RESOLUTION-80 "1"
*MEAS_COND_AXIS_RESOLUTION-81 "0.01"
*MEAS_COND_AXIS_RESOLUTION-82 "1.000000"
*MEAS_COND_AXIS_RESOLUTION-83 "1.000000"
*MEAS_COND_AXIS_RESOLUTION-84 "1.000000"
*MEAS_COND_AXIS_RESOLUTION-85 "-"
*MEAS_COND_AXIS_RESOLUTION-86 "-"
*MEAS_COND_AXIS_RESOLUTION-87 "-"
*MEAS_COND_AXIS_RESOLUTION-88 "1.000000"
*MEAS_COND_AXIS_RESOLUTION-89 "-"
*MEAS_COND_AXIS_RESOLUTION-9 "0.0000625"
*MEAS_COND_AXIS_RESOLUTION-90 "-"
*MEAS_COND_AXIS_RESOLUTION-91 "-"
*MEAS_COND_AXIS_RESOLUTION-92 "1.000000"
*MEAS_COND_AXIS_RESOLUTION-93 "1.000000"
*MEAS_COND_AXIS_RESOLUTION-94 "1.000000"
*MEAS_COND_AXIS_RESOLUTION-95 "1.000000"
*MEAS_COND_AXIS_RESOLUTION-96 "1.000000"
*MEAS_COND_AXIS_RESOLUTION-97 "1.000000"
*MEAS_COND_AXIS_RESOLUTION-98 "1.000000"
*MEAS_COND_AXIS_STATE-0 "Fixed"
*MEAS_COND_AXIS_STATE-1 "Fixed"
*MEAS_COND_AXIS_STATE-10 "Fixed"
*MEAS_COND_AXIS_STATE-11 "Fixed"
*MEAS_COND_AXIS_STATE-12 "Fixed"
*MEAS_COND_AXIS_STATE-13 "Fixed"
*MEAS_COND_AXIS_STATE-14 "Fixed"
*MEAS_COND_AXIS_STATE-15 "Fixed"
*MEAS_COND_AXIS_STATE-16 "Fixed"
*MEAS_COND_AXIS_STATE-17 "Fixed"
*MEAS_COND_AXIS_STATE-18 "Fixed"
*MEAS_COND_AXIS_STATE-19 "Fixed"
*MEAS_COND_AXIS_STATE-2 "Fixed"
*MEAS_COND_AXIS_STATE-20 "Fixed"
*MEAS_COND_AXIS_STATE-21 "Fixed"
*MEAS_COND_AXIS_STATE-22 "Fixed"
*MEAS_COND_AXIS_STATE-23 "Fixed"
*MEAS_COND_AXIS_STATE-24 "Fixed"
*MEAS_COND_AXIS_STATE-25 "Scan"
*MEAS_COND_AXIS_STATE-26 "Fixed"
*MEAS_COND_AXIS_STATE-27 "Fixed"
*MEAS_COND_AXIS_STATE-28 "Fixed"
*MEAS_COND_AXIS_STATE-29 "Fixed"
*MEAS_COND_AXIS_STATE-3 "Fixed"
*MEAS_COND_AXIS_STATE-30 "Fixed"
*MEAS_COND_AXIS_STATE-31 "Fixed"
*MEAS_COND_AXIS_STATE-32 "Fixed"
*MEAS_COND_AXIS_STATE-33 "Fixed"
*MEAS_COND_AXIS_STATE-34 "Fixed"
*MEAS_COND_AXIS_STATE-35 "Fixed"
*MEAS_COND_AXIS_STATE-36 "Fixed"
*MEAS_COND_AXIS_STATE-37 "Fixed"
*MEAS_COND_AXIS_STATE-38 "Fixed"
*MEAS_COND_AXIS_STATE-39 "Fixed"
*MEAS_COND_AXIS_STATE-4 "Fixed"
*MEAS_COND_AXIS_STATE-40 "Fixed"
*MEAS_COND_AXIS_STATE-41 "Fixed"
*MEAS_COND_AXIS_STATE-42 "Fixed"
*MEAS_COND_AXIS_STATE-43 "Fixed"
*MEAS_COND_AXIS_STATE-44 "Fixed"
*MEAS_COND_AXIS_STATE-45 "Fixed"
*MEAS_COND_AXIS_STATE-46 "Fixed"
*MEAS_COND_AXIS_STATE-47 "Fixed"
*MEAS_COND_AXIS_STATE-48 "Fixed"
*MEAS_COND_AXIS_STATE-49 "Fixed"
*MEAS_COND_AXIS_STATE-5 "Fixed"
*MEAS_COND_AXIS_STATE-50 "Fixed"
*MEAS_COND_AXIS_STATE-51 "Fixed"
*MEAS_COND_AXIS_STATE-52 "Fixed"
*MEAS_COND_AXIS_STATE-53 "Fixed"
*MEAS_COND_AXIS_STATE-54 "Fixed"
*MEAS_COND_AXIS_STATE-55 "Fixed"
*MEAS_COND_AXIS_STATE-56 "Fixed"
*MEAS_COND_AXIS_STATE-57 "Fixed"
*MEAS_COND_AXIS_STATE-58 "Fixed"
*MEAS_COND_AXIS_STATE-59 "Fixed"
*MEAS_COND_AXIS_STATE-6 "Fixed"
*MEAS_COND_AXIS_STATE-60 "Fixed"
*MEAS_COND_AXIS_STATE-61 "Fixed"
*MEAS_COND_AXIS_STATE-62 "Fixed"
*MEAS_COND_AXIS_STATE-63 "Fixed"
*MEAS_COND_AXIS_STATE-64 "Fixed"
*MEAS_COND_AXIS_STATE-65 "Fixed"
*MEAS_COND_AXIS_STATE-66 "Fixed"
*MEAS_COND_AXIS_STATE-67 "Fixed"
*MEAS_COND_AXIS_STATE-68 "Fixed"
*MEAS_COND_AXIS_STATE-69 "Fixed"
*MEAS_COND_AXIS_STATE-7 "Fixed"
*MEAS_COND_AXIS_STATE-70 "Fixed"
*MEAS_COND_AXIS_STATE-71 "Fixed"
*MEAS_COND_AXIS_STATE-72 "Fixed"
*MEAS_COND_AXIS_STATE-73 "Fixed"
*MEAS_COND_AXIS_STATE-74 "Fixed"
*MEAS_COND_AXIS_STATE-75 "Fixed"
*MEAS_COND_AXIS_STATE-76 "Fixed"
*MEAS_COND_AXIS_STATE-77 "Fixed"
*MEAS_COND_AXIS_STATE-78 "Fixed"
*MEAS_COND_AXIS_STATE-79 "Fixed"
*MEAS_COND_AXIS_STATE-8 "Fixed"
*MEAS_COND_AXIS_STATE-80 "Fixed"
*MEAS_COND_AXIS_STATE-81 "Fixed"
*MEAS_COND_AXIS_STATE-82 "Fixed"
*MEAS_COND_AXIS_STATE-83 "Fixed"
*MEAS_COND_AXIS_STATE-84 "Fixed"
*MEAS_COND_AXIS_STATE-85 "Fixed"
*MEAS_COND_AXIS_STATE-86 "Fixed"
*MEAS_COND_AXIS_STATE-87 "Fixed"
*MEAS_COND_AXIS_STATE-88 "Fixed"
*MEAS_COND_AXIS_STATE-89 "Fixed"
*MEAS_COND_AXIS_STATE-9 "Fixed"
*MEAS_COND_AXIS_STATE-90 "Fixed"
*MEAS_COND_AXIS_STATE-91 "Fixed"
*MEAS_COND_AXIS_STATE-92 "Fixed"
*MEAS_COND_AXIS_STATE-93 "Fixed"
*MEAS_COND_AXIS_STATE-94 "Fixed"
*MEAS_COND_AXIS_STATE-95 "Fixed"
*MEAS_COND_AXIS_STATE-96 "Fixed"
*MEAS_COND_AXIS_STATE-97 "Fixed"
*MEAS_COND_AXIS_STATE-98 "Fixed"
*MEAS_COND_AXIS_UNIT-0 "deg"
*MEAS_COND_AXIS_UNIT-1 "deg"
*MEAS_COND_AXIS_UNIT-10 ""
*MEAS_COND_AXIS_UNIT-100 ""
*MEAS_COND_AXIS_UNIT-101 ""
*MEAS_COND_AXIS_UNIT-102 ""
*MEAS_COND_AXIS_UNIT-11 ""
*MEAS_COND_AXIS_UNIT-12 ""
*MEAS_COND_AXIS_UNIT-13 "pulse"
*MEAS_COND_AXIS_UNIT-14 ""
*MEAS_COND_AXIS_UNIT-15 "pulse"
*MEAS_COND_AXIS_UNIT-16 ""
*MEAS_COND_AXIS_UNIT-17 ""
*MEAS_COND_AXIS_UNIT-18 "mm"
*MEAS_COND_AXIS_UNIT-19 ""
*MEAS_COND_AXIS_UNIT-2 "deg"
*MEAS_COND_AXIS_UNIT-20 "mm"
*MEAS_COND_AXIS_UNIT-21 ""
*MEAS_COND_AXIS_UNIT-22 ""
*MEAS_COND_AXIS_UNIT-23 ""
*MEAS_COND_AXIS_UNIT-24 "deg"
*MEAS_COND_AXIS_UNIT-25 "deg"
*MEAS_COND_AXIS_UNIT-26 "mm"
*MEAS_COND_AXIS_UNIT-27 "deg"
*MEAS_COND_AXIS_UNIT-28 "deg"
*MEAS_COND_AXIS_UNIT-29 "deg"
*MEAS_COND_AXIS_UNIT-3 "deg"
*MEAS_COND_AXIS_UNIT-30 "deg"
*MEAS_COND_AXIS_UNIT-31 "deg"
*MEAS_COND_AXIS_UNIT-32 "deg"
*MEAS_COND_AXIS_UNIT-33 "deg"
*MEAS_COND_AXIS_UNIT-34 "deg"
*MEAS_COND_AXIS_UNIT-35 ""
*MEAS_COND_AXIS_UNIT-36 "mm"
*MEAS_COND_AXIS_UNIT-37 ""
*MEAS_COND_AXIS_UNIT-38 ""
*MEAS_COND_AXIS_UNIT-39 ""
*MEAS_COND_AXIS_UNIT-4 "deg"
*MEAS_COND_AXIS_UNIT-40 ""
*MEAS_COND_AXIS_UNIT-41 ""
*MEAS_COND_AXIS_UNIT-42 "mm"
*MEAS_COND_AXIS_UNIT-43 ""
*MEAS_COND_AXIS_UNIT-44 "mm"
*MEAS_COND_AXIS_UNIT-45 ""
*MEAS_COND_AXIS_UNIT-46 ""
*MEAS_COND_AXIS_UNIT-47 "V"
*MEAS_COND_AXIS_UNIT-48 "mV"
*MEAS_COND_AXIS_UNIT-49 ""
*MEAS_COND_AXIS_UNIT-5 "deg"
*MEAS_COND_AXIS_UNIT-50 "H"
*MEAS_COND_AXIS_UNIT-51 "H"
*MEAS_COND_AXIS_UNIT-52 "H"
*MEAS_COND_AXIS_UNIT-53 "H"
*MEAS_COND_AXIS_UNIT-54 "H"
*MEAS_COND_AXIS_UNIT-55 "mV"
*MEAS_COND_AXIS_UNIT-56 "V"
*MEAS_COND_AXIS_UNIT-57 "V"
*MEAS_COND_AXIS_UNIT-58 "V"
*MEAS_COND_AXIS_UNIT-59 "H"
*MEAS_COND_AXIS_UNIT-6 "deg"
*MEAS_COND_AXIS_UNIT-60 "H"
*MEAS_COND_AXIS_UNIT-61 "H"
*MEAS_COND_AXIS_UNIT-62 "H"
*MEAS_COND_AXIS_UNIT-63 "H"
*MEAS_COND_AXIS_UNIT-64 "uS/m"
*MEAS_COND_AXIS_UNIT-65 "L/min"
*MEAS_COND_AXIS_UNIT-66 "C"
*MEAS_COND_AXIS_UNIT-67 "MPa"
*MEAS_COND_AXIS_UNIT-68 "MPa"
*MEAS_COND_AXIS_UNIT-69 "MPa"
*MEAS_COND_AXIS_UNIT-7 "deg"
*MEAS_COND_AXIS_UNIT-70 "L/min"
*MEAS_COND_AXIS_UNIT-71 "degree"
*MEAS_COND_AXIS_UNIT-72 "MPa"
*MEAS_COND_AXIS_UNIT-73 "degree"
*MEAS_COND_AXIS_UNIT-74 "percent"
*MEAS_COND_AXIS_UNIT-75 "degree"
*MEAS_COND_AXIS_UNIT-76 "C"
*MEAS_COND_AXIS_UNIT-77 "H"
*MEAS_COND_AXIS_UNIT-78 "time"
*MEAS_COND_AXIS_UNIT-79 "msec"
*MEAS_COND_AXIS_UNIT-8 ""
*MEAS_COND_AXIS_UNIT-80 "msec"
*MEAS_COND_AXIS_UNIT-81 "H"
*MEAS_COND_AXIS_UNIT-82 "times"
*MEAS_COND_AXIS_UNIT-83 "msec"
*MEAS_COND_AXIS_UNIT-84 "msec"
*MEAS_COND_AXIS_UNIT-85 "-"
*MEAS_COND_AXIS_UNIT-86 "-"
*MEAS_COND_AXIS_UNIT-87 "-"
*MEAS_COND_AXIS_UNIT-88 ""
*MEAS_COND_AXIS_UNIT-89 "-"
*MEAS_COND_AXIS_UNIT-9 "mm"
*MEAS_COND_AXIS_UNIT-90 "-"
*MEAS_COND_AXIS_UNIT-91 "-"
*MEAS_COND_AXIS_UNIT-92 ""
*MEAS_COND_AXIS_UNIT-93 ""
*MEAS_COND_AXIS_UNIT-94 ""
*MEAS_COND_AXIS_UNIT-95 ""
*MEAS_COND_AXIS_UNIT-96 ""
*MEAS_COND_AXIS_UNIT-97 ""
*MEAS_COND_AXIS_UNIT-98 ""
*MEAS_COND_AXIS_UNIT-99 ""
*MEAS_COND_OPT_ATTR "PB-Ge(220)x2"
*MEAS_COND_OPT_NAME "User defined settings"
*MEAS_COND_XG_CURRENT "160"
*MEAS_COND_XG_VOLTAGE "45"
*MEAS_COND_XG_WAVE_TYPE "Ka1"
*MEAS_DATA_COUNT "3601"
*MEAS_SCAN_AXIS_X "Phi"
*MEAS_SCAN_AXIS_X_INTERNAL "Phi"
*MEAS_SCAN_END_TIME "09/10/2020 20:03:09"
*MEAS_SCAN_MODE "CONTINUOUS"
*MEAS_SCAN_MODE_INTERNAL "CONTINUOUS"
*MEAS_SCAN_RESOLUTION_X "0.002"
*MEAS_SCAN_SPEED "18.000"
*MEAS_SCAN_SPEED_UNIT "deg/min"
*MEAS_SCAN_START "0.000"
*MEAS_SCAN_START_TIME "09/10/2020 19:42:50"
*MEAS_SCAN_STEP "0.100"
*MEAS_SCAN_STOP "360.000"
*MEAS_SCAN_UNEQUALY_SPACED "False"
*MEAS_SCAN_UNIT_X "deg"
*MEAS_SCAN_UNIT_Y "cps"
#Intensity_unit=cps
0.000 21.000
0.100 18.000
0.200 36.000
0.300 15.000
0.400 21.000
0.500 6.000
0.600 9.000
0.700 15.000
0.800 12.000
0.900 3.000
1.000 6.000
1.100 9.000
1.200 9.000
1.300 6.000
1.400 6.000
1.500 3.000
1.600 0.000
1.700 3.000
1.800 3.000
1.900 0.000
2.000 0.000
2.100 0.000
2.200 3.000
2.300 0.000
2.400 0.000
2.500 0.000
2.600 3.000
2.700 6.000
2.800 6.000
2.900 0.000
3.000 0.000
3.100 3.000
3.200 3.000
3.300 0.000
3.400 3.000
3.500 3.000
3.600 3.000
3.700 0.000
3.800 9.000
3.900 3.000
4.000 6.000
4.100 0.000
4.200 3.000
4.300 3.000
4.400 3.000
4.500 3.000
4.600 0.000
4.700 0.000
4.800 3.000
4.900 3.000
5.000 9.000
5.100 0.000
5.200 0.000
5.300 0.000
5.400 0.000
5.500 3.000
5.600 0.000
5.700 0.000
5.800 3.000
5.900 0.000
6.000 3.000
6.100 3.000
6.200 3.000
6.300 3.000
6.400 0.000
6.500 3.000
6.600 0.000
6.700 3.000
6.800 3.000
6.900 6.000
7.000 3.000
7.100 3.000
7.200 0.000
7.300 0.000
7.400 3.000
7.500 0.000
7.600 3.000
7.700 0.000
7.800 6.000
7.900 6.000
8.000 0.000
8.100 6.000
8.200 0.000
8.300 0.000
8.400 3.000
8.500 0.000
8.600 6.000
8.700 6.000
8.800 3.000
8.900 3.000
9.000 3.000
9.100 3.000
9.200 0.000
9.300 0.000
9.400 3.000
9.500 3.000
9.600 6.000
9.700 3.000
9.800 3.000
9.900 6.000
10.000 0.000
10.100 6.000
10.200 0.000
10.300 3.000
10.400 0.000
10.500 0.000
10.600 9.000
10.700 3.000
10.800 3.000
10.900 0.000
11.000 3.000
11.100 9.000
11.200 0.000
11.300 3.000
11.400 0.000
11.500 3.000
11.600 3.000
11.700 3.000
11.800 0.000
11.900 3.000
12.000 3.000
12.100 0.000
12.200 0.000
12.300 0.000
12.400 0.000
12.500 3.000
12.600 0.000
12.700 9.000
12.800 3.000
12.900 0.000
13.000 0.000
13.100 3.000
13.200 6.000
13.300 0.000
13.400 3.000
13.500 3.000
13.600 3.000
13.700 6.000
13.800 3.000
13.900 3.000
14.000 0.000
14.100 6.000
14.200 6.000
14.300 0.000
14.400 0.000
14.500 6.000
14.600 3.000
14.700 0.000
14.800 0.000
14.900 0.000
15.000 6.000
15.100 0.000
15.200 3.000
15.300 0.000
15.400 0.000
15.500 6.000
15.600 6.000
15.700 3.000
15.800 6.000
15.900 3.000
16.000 0.000
16.100 3.000
16.200 6.000
16.300 6.000
16.400 3.000
16.500 3.000
16.600 0.000
16.700 0.000
16.800 0.000
16.900 6.000
17.000 3.000
17.100 3.000
17.200 0.000
17.300 3.000
17.400 3.000
17.500 0.000
17.600 12.000
17.700 3.000
17.800 3.000
17.900 6.000
18.000 0.000
18.100 6.000
18.200 6.000
18.300 3.000
18.400 3.000
18.500 0.000
18.600 3.000
18.700 0.000
18.800 0.000
18.900 0.000
19.000 0.000
19.100 0.000
19.200 15.000
19.300 0.000
19.400 0.000
19.500 3.000
19.600 3.000
19.700 3.000
19.800 0.000
19.900 3.000
20.000 3.000
20.100 3.000
20.200 0.000
20.300 0.000
20.400 0.000
20.500 0.000
20.600 0.000
20.700 3.000
20.800 3.000
20.900 3.000
21.000 3.000
21.100 3.000
21.200 3.000
21.300 0.000
21.400 3.000
21.500 3.000
21.600 3.000
21.700 0.000
21.800 3.000
21.900 0.000
22.000 3.000
22.100 9.000
22.200 0.000
22.300 9.000
22.400 0.000
22.500 3.000
22.600 6.000
22.700 6.000
22.800 3.000
22.900 0.000
23.000 0.000
23.100 0.000
23.200 0.000
23.300 0.000
23.400 0.000
23.500 3.000
23.600 6.000
23.700 3.000
23.800 6.000
23.900 3.000
24.000 0.000
24.100 3.000
24.200 3.000
24.300 0.000
24.400 0.000
24.500 0.000
24.600 6.000
24.700 0.000
24.800 6.000
24.900 0.000
25.000 0.000
25.100 3.000
25.200 6.000
25.300 3.000
25.400 3.000
25.500 6.000
25.600 3.000
25.700 6.000
25.800 6.000
25.900 0.000
26.000 0.000
26.100 3.000
26.200 6.000
26.300 6.000
26.400 0.000
26.500 0.000
26.600 3.000
26.700 3.000
26.800 0.000
26.900 0.000
27.000 0.000
27.100 0.000
27.200 0.000
27.300 0.000
27.400 0.000
27.500 0.000
27.600 3.000
27.700 3.000
27.800 0.000
27.900 0.000
28.000 3.000
28.100 6.000
28.200 3.000
28.300 3.000
28.400 0.000
28.500 0.000
28.600 3.000
28.700 0.000
28.800 6.000
28.900 6.000
29.000 0.000
29.100 0.000
29.200 9.000
29.300 3.000
29.400 0.000
29.500 6.000
29.600 6.000
29.700 0.000
29.800 0.000
29.900 0.000
30.000 0.000
30.100 0.000
30.200 3.000
30.300 0.000
30.400 6.000
30.500 0.000
30.600 0.000
30.700 0.000
30.800 6.000
30.900 0.000
31.000 0.000
31.100 3.000
31.200 3.000
31.300 3.000
31.400 3.000
31.500 6.000
31.600 3.000
31.700 0.000
31.800 3.000
31.900 6.000
32.000 0.000
32.100 3.000
32.200 6.000
32.300 3.000
32.400 3.000
32.500 0.000
32.600 3.000
32.700 3.000
32.800 6.000
32.900 3.000
33.000 3.000
33.100 6.000
33.200 3.000
33.300 3.000
33.400 0.000
33.500 6.000
33.600 3.000
33.700 3.000
33.800 3.000
33.900 0.000
34.000 3.000
34.100 6.000
34.200 3.000
34.300 0.000
34.400 0.000
34.500 0.000
34.600 3.000
34.700 3.000
34.800 3.000
34.900 3.000
35.000 0.000
35.100 3.000
35.200 0.000
35.300 0.000
35.400 0.000
35.500 0.000
35.600 9.000
35.700 3.000
35.800 0.000
35.900 0.000
36.000 0.000
36.100 3.000
36.200 0.000
36.300 0.000
36.400 3.000
36.500 0.000
36.600 0.000
36.700 3.000
36.800 6.000
36.900 3.000
37.000 6.000
37.100 6.000
37.200 3.000
37.300 0.000
37.400 6.000
37.500 0.000
37.600 6.000
37.700 3.000
37.800 0.000
37.900 3.000
38.000 0.000
38.100 0.000
38.200 3.000
38.300 0.000
38.400 0.000
38.500 0.000
38.600 3.000
38.700 0.000
38.800 0.000
38.900 6.000
39.000 0.000
39.100 3.000
39.200 0.000
39.300 0.000
39.400 3.000
39.500 6.000
39.600 0.000
39.700 3.000
39.800 3.000
39.900 6.000
40.000 0.000
40.100 3.000
40.200 9.000
40.300 0.000
40.400 3.000
40.500 0.000
40.600 0.000
40.700 0.000
40.800 0.000
40.900 3.000
41.000 0.000
41.100 3.000
41.200 3.000
41.300 3.000
41.400 0.000
41.500 6.000
41.600 3.000
41.700 6.000
41.800 0.000
41.900 0.000
42.000 6.000
42.100 6.000
42.200 0.000
42.300 0.000
42.400 0.000
42.500 9.000
42.600 0.000
42.700 6.000
42.800 3.000
42.900 3.000
43.000 3.000
43.100 0.000
43.200 6.000
43.300 0.000
43.400 0.000
43.500 3.000
43.600 3.000
43.700 6.000
43.800 0.000
43.900 6.000
44.000 3.000
44.100 0.000
44.200 0.000
44.300 6.000
44.400 3.000
44.500 3.000
44.600 3.000
44.700 6.000
44.800 0.000
44.900 0.000
45.000 3.000
45.100 0.000
45.200 0.000
45.300 6.000
45.400 0.000
45.500 0.000
45.600 0.000
45.700 3.000
45.800 0.000
45.900 3.000
46.000 9.000
46.100 3.000
46.200 6.000
46.300 3.000
46.400 0.000
46.500 0.000
46.600 3.000
46.700 0.000
46.800 0.000
46.900 3.000
47.000 3.000
47.100 0.000
47.200 0.000
47.300 0.000
47.400 0.000
47.500 0.000
47.600 0.000
47.700 3.000
47.800 3.000
47.900 0.000
48.000 3.000
48.100 3.000
48.200 3.000
48.300 6.000
48.400 0.000
48.500 0.000
48.600 0.000
48.700 6.000
48.800 0.000
48.900 6.000
49.000 0.000
49.100 0.000
49.200 0.000
49.300 9.000
49.400 3.000
49.500 6.000
49.600 0.000
49.700 3.000
49.800 0.000
49.900 3.000
50.000 0.000
50.100 3.000
50.200 0.000
50.300 0.000
50.400 0.000
50.500 9.000
50.600 6.000
50.700 3.000
50.800 6.000
50.900 6.000
51.000 9.000
51.100 0.000
51.200 9.000
51.300 3.000
51.400 0.000
51.500 3.000
51.600 3.000
51.700 6.000
51.800 3.000
51.900 0.000
52.000 3.000
52.100 3.000
52.200 3.000
52.300 0.000
52.400 9.000
52.500 3.000
52.600 3.000
52.700 0.000
52.800 3.000
52.900 0.000
53.000 0.000
53.100 12.000
53.200 6.000
53.300 0.000
53.400 3.000
53.500 6.000
53.600 0.000
53.700 0.000
53.800 0.000
53.900 3.000
54.000 6.000
54.100 6.000
54.200 0.000
54.300 0.000
54.400 0.000
54.500 0.000
54.600 6.000
54.700 0.000
54.800 6.000
54.900 3.000
55.000 6.000
55.100 9.000
55.200 3.000
55.300 0.000
55.400 6.000
55.500 0.000
55.600 6.000
55.700 0.000
55.800 0.000
55.900 3.000
56.000 6.000
56.100 9.000
56.200 3.000
56.300 3.000
56.400 3.000
56.500 0.000
56.600 6.000
56.700 6.000
56.800 9.000
56.900 18.000
57.000 12.000
57.100 0.000
57.200 15.000
57.300 9.000
57.400 12.000
57.500 21.000
57.600 6.000
57.700 24.000
57.800 24.000
57.900 24.000
58.000 12.000
58.100 48.000
58.200 21.000
58.300 39.000
58.400 51.000
58.500 39.000
58.600 66.000
58.700 57.000
58.800 111.000
58.900 147.000
59.000 135.000
59.100 222.000
59.200 306.000
59.300 363.000
59.400 522.000
59.500 711.000
59.600 843.000
59.700 1101.000
59.800 1350.000
59.900 1500.000
60.000 1737.000
60.100 1815.000
60.200 1923.000
60.300 1761.000
60.400 1620.000
60.500 1329.000
60.600 1089.000
60.700 792.000
60.800 735.000
60.900 561.000
61.000 345.000
61.100 330.000
61.200 159.000
61.300 147.000
61.400 123.000
61.500 102.000
61.600 75.000
61.700 57.000
61.800 39.000
61.900 48.000
62.000 36.000
62.100 27.000
62.200 33.000
62.300 18.000
62.400 24.000
62.500 24.000
62.600 12.000
62.700 24.000
62.800 9.000
62.900 12.000
63.000 18.000
63.100 6.000
63.200 3.000
63.300 9.000
63.400 6.000
63.500 6.000
63.600 6.000
63.700 15.000
63.800 15.000
63.900 9.000
64.000 15.000
64.100 3.000
64.200 9.000
64.300 9.000
64.400 3.000
64.500 3.000
64.600 3.000
64.700 3.000
64.800 18.000
64.900 15.000
65.000 9.000
65.100 12.000
65.200 6.000
65.300 12.000
65.400 3.000
65.500 0.000
65.600 3.000
65.700 12.000
65.800 0.000
65.900 6.000
66.000 3.000
66.100 3.000
66.200 9.000
66.300 0.000
66.400 0.000
66.500 3.000
66.600 9.000
66.700 0.000
66.800 3.000
66.900 6.000
67.000 0.000
67.100 9.000
67.200 3.000
67.300 0.000
67.400 0.000
67.500 0.000
67.600 0.000
67.700 6.000
67.800 3.000
67.900 0.000
68.000 9.000
68.100 0.000
68.200 3.000
68.300 0.000
68.400 3.000
68.500 0.000
68.600 6.000
68.700 0.000
68.800 0.000
68.900 0.000
69.000 3.000
69.100 0.000
69.200 0.000
69.300 6.000
69.400 0.000
69.500 0.000
69.600 0.000
69.700 3.000
69.800 0.000
69.900 3.000
70.000 0.000
70.100 0.000
70.200 3.000
70.300 15.000
70.400 0.000
70.500 6.000
70.600 0.000
70.700 3.000
70.800 0.000
70.900 0.000
71.000 9.000
71.100 3.000
71.200 6.000
71.300 0.000
71.400 0.000
71.500 3.000
71.600 0.000
71.700 3.000
71.800 6.000
71.900 0.000
72.000 6.000
72.100 6.000
72.200 3.000
72.300 3.000
72.400 6.000
72.500 6.000
72.600 3.000
72.700 0.000
72.800 6.000
72.900 0.000
73.000 3.000
73.100 3.000
73.200 3.000
73.300 3.000
73.400 3.000
73.500 0.000
73.600 3.000
73.700 3.000
73.800 0.000
73.900 3.000
74.000 6.000
74.100 0.000
74.200 0.000
74.300 0.000
74.400 0.000
74.500 0.000
74.600 0.000
74.700 0.000
74.800 0.000
74.900 0.000
75.000 0.000
75.100 0.000
75.200 6.000
75.300 0.000
75.400 0.000
75.500 0.000
75.600 3.000
75.700 0.000
75.800 3.000
75.900 9.000
76.000 0.000
76.100 6.000
76.200 0.000
76.300 6.000
76.400 0.000
76.500 0.000
76.600 6.000
76.700 3.000
76.800 0.000
76.900 3.000
77.000 0.000
77.100 0.000
77.200 6.000
77.300 0.000
77.400 0.000
77.500 3.000
77.600 6.000
77.700 0.000
77.800 0.000
77.900 3.000
78.000 0.000
78.100 3.000
78.200 3.000
78.300 3.000
78.400 3.000
78.500 3.000
78.600 6.000
78.700 3.000
78.800 6.000
78.900 0.000
79.000 3.000
79.100 3.000
79.200 3.000
79.300 0.000
79.400 3.000
79.500 3.000
79.600 0.000
79.700 3.000
79.800 6.000
79.900 0.000
80.000 0.000
80.100 3.000
80.200 6.000
80.300 3.000
80.400 0.000
80.500 0.000
80.600 0.000
80.700 3.000
80.800 0.000
80.900 12.000
81.000 3.000
81.100 0.000
81.200 6.000
81.300 3.000
81.400 0.000
81.500 0.000
81.600 0.000
81.700 3.000
81.800 9.000
81.900 3.000
82.000 3.000
82.100 0.000
82.200 3.000
82.300 0.000
82.400 0.000
82.500 6.000
82.600 6.000
82.700 3.000
82.800 0.000
82.900 0.000
83.000 0.000
83.100 3.000
83.200 6.000
83.300 0.000
83.400 0.000
83.500 6.000
83.600 0.000
83.700 3.000
83.800 0.000
83.900 0.000
84.000 6.000
84.100 6.000
84.200 0.000
84.300 0.000
84.400 0.000
84.500 6.000
84.600 3.000
84.700 0.000
84.800 3.000
84.900 3.000
85.000 3.000
85.100 0.000
85.200 3.000
85.300 0.000
85.400 6.000
85.500 3.000
85.600 3.000
85.700 6.000
85.800 0.000
85.900 0.000
86.000 6.000
86.100 0.000
86.200 0.000
86.300 3.000
86.400 6.000
86.500 3.000
86.600 6.000
86.700 6.000
86.800 3.000
86.900 0.000
87.000 0.000
87.100 3.000
87.200 3.000
87.300 0.000
87.400 3.000
87.500 0.000
87.600 0.000
87.700 3.000
87.800 0.000
87.900 3.000
88.000 3.000
88.100 0.000
88.200 0.000
88.300 3.000
88.400 6.000
88.500 3.000
88.600 0.000
88.700 0.000
88.800 3.000
88.900 0.000
89.000 3.000
89.100 0.000
89.200 6.000
89.300 9.000
89.400 3.000
89.500 0.000
89.600 0.000
89.700 0.000
89.800 3.000
89.900 3.000
90.000 3.000
90.100 0.000
90.200 6.000
90.300 3.000
90.400 0.000
90.500 3.000
90.600 0.000
90.700 3.000
90.800 6.000
90.900 3.000
91.000 0.000
91.100 0.000
91.200 3.000
91.300 0.000
91.400 3.000
91.500 0.000
91.600 0.000
91.700 9.000
91.800 9.000
91.900 0.000
92.000 3.000
92.100 3.000
92.200 0.000
92.300 0.000
92.400 3.000
92.500 0.000
92.600 0.000
92.700 0.000
92.800 0.000
92.900 0.000
93.000 0.000
93.100 6.000
93.200 3.000
93.300 0.000
93.400 0.000
93.500 3.000
93.600 0.000
93.700 0.000
93.800 3.000
93.900 3.000
94.000 0.000
94.100 0.000
94.200 0.000
94.300 3.000
94.400 3.000
94.500 0.000
94.600 3.000
94.700 3.000
94.800 3.000
94.900 12.000
95.000 3.000
95.100 0.000
95.200 3.000
95.300 3.000
95.400 6.000
95.500 0.000
95.600 0.000
95.700 0.000
95.800 0.000
95.900 3.000
96.000 3.000
96.100 0.000
96.200 0.000
96.300 3.000
96.400 0.000
96.500 3.000
96.600 0.000
96.700 0.000
96.800 0.000
96.900 0.000
97.000 3.000
97.100 6.000
97.200 0.000
97.300 3.000
97.400 0.000
97.500 3.000
97.600 0.000
97.700 6.000
97.800 3.000
97.900 0.000
98.000 0.000
98.100 0.000
98.200 3.000
98.300 0.000
98.400 3.000
98.500 3.000
98.600 0.000
98.700 3.000
98.800 3.000
98.900 0.000
99.000 9.000
99.100 3.000
99.200 6.000
99.300 0.000
99.400 3.000
99.500 6.000
99.600 0.000
99.700 0.000
99.800 0.000
99.900 3.000
100.000 3.000
100.100 0.000
100.200 0.000
100.300 0.000
100.400 0.000
100.500 3.000
100.600 0.000
100.700 3.000
100.800 0.000
100.900 3.000
101.000 3.000
101.100 3.000
101.200 0.000
101.300 6.000
101.400 0.000
101.500 12.000
101.600 0.000
101.700 3.000
101.800 0.000
101.900 0.000
102.000 3.000
102.100 0.000
102.200 3.000
102.300 3.000
102.400 3.000
102.500 0.000
102.600 0.000
102.700 0.000
102.800 0.000
102.900 3.000
103.000 0.000
103.100 3.000
103.200 3.000
103.300 3.000
103.400 6.000
103.500 0.000
103.600 3.000
103.700 0.000
103.800 0.000
103.900 3.000
104.000 9.000
104.100 15.000
104.200 0.000
104.300 3.000
104.400 0.000
104.500 0.000
104.600 0.000
104.700 0.000
104.800 0.000
104.900 0.000
105.000 0.000
105.100 3.000
105.200 0.000
105.300 0.000
105.400 0.000
105.500 0.000
105.600 0.000
105.700 3.000
105.800 0.000
105.900 0.000
106.000 0.000
106.100 6.000
106.200 6.000
106.300 0.000
106.400 0.000
106.500 9.000
106.600 3.000
106.700 9.000
106.800 0.000
106.900 3.000
107.000 0.000
107.100 3.000
107.200 0.000
107.300 3.000
107.400 3.000
107.500 0.000
107.600 6.000
107.700 3.000
107.800 0.000
107.900 0.000
108.000 6.000
108.100 3.000
108.200 0.000
108.300 3.000
108.400 0.000
108.500 3.000
108.600 0.000
108.700 0.000
108.800 6.000
108.900 6.000
109.000 0.000
109.100 9.000
109.200 3.000
109.300 0.000
109.400 3.000
109.500 0.000
109.600 3.000
109.700 0.000
109.800 3.000
109.900 3.000
110.000 3.000
110.100 6.000
110.200 6.000
110.300 3.000
110.400 0.000
110.500 0.000
110.600 0.000
110.700 9.000
110.800 6.000
110.900 6.000
111.000 3.000
111.100 9.000
111.200 3.000
111.300 0.000
111.400 3.000
111.500 6.000
111.600 0.000
111.700 0.000
111.800 0.000
111.900 3.000
112.000 9.000
112.100 3.000
112.200 0.000
112.300 3.000
112.400 0.000
112.500 3.000
112.600 6.000
112.700 6.000
112.800 3.000
112.900 0.000
113.000 6.000
113.100 3.000
113.200 3.000
113.300 0.000
113.400 0.000
113.500 3.000
113.600 3.000
113.700 3.000
113.800 3.000
113.900 0.000
114.000 0.000
114.100 0.000
114.200 0.000
114.300 0.000
114.400 3.000
114.500 6.000
114.600 0.000
114.700 0.000
114.800 0.000
114.900 6.000
115.000 3.000
115.100 0.000
115.200 0.000
115.300 6.000
115.400 3.000
115.500 0.000
115.600 3.000
115.700 0.000
115.800 9.000
115.900 0.000
116.000 6.000
116.100 6.000
116.200 3.000
116.300 0.000
116.400 3.000
116.500 3.000
116.600 0.000
116.700 3.000
116.800 3.000
116.900 0.000
117.000 0.000
117.100 0.000
117.200 0.000
117.300 0.000
117.400 3.000
117.500 6.000
117.600 0.000
117.700 0.000
117.800 0.000
117.900 3.000
118.000 3.000
118.100 0.000
118.200 0.000
118.300 3.000
118.400 3.000
118.500 6.000
118.600 3.000
118.700 0.000
118.800 3.000
118.900 3.000
119.000 0.000
119.100 3.000
119.200 3.000
119.300 6.000
119.400 15.000
119.500 24.000
119.600 18.000
119.700 21.000
119.800 15.000
119.900 15.000
120.000 9.000
120.100 12.000
120.200 21.000
120.300 18.000
120.400 18.000
120.500 12.000
120.600 9.000
120.700 12.000
120.800 15.000
120.900 12.000
121.000 3.000
121.100 3.000
121.200 9.000
121.300 6.000
121.400 0.000
121.500 3.000
121.600 9.000
121.700 9.000
121.800 0.000
121.900 3.000
122.000 3.000
122.100 0.000
122.200 0.000
122.300 3.000
122.400 6.000
122.500 3.000
122.600 3.000
122.700 0.000
122.800 3.000
122.900 3.000
123.000 6.000
123.100 3.000
123.200 0.000
123.300 6.000
123.400 3.000
123.500 3.000
123.600 0.000
123.700 3.000
123.800 0.000
123.900 3.000
124.000 0.000
124.100 0.000
124.200 3.000
124.300 3.000
124.400 0.000
124.500 0.000
124.600 0.000
124.700 0.000
124.800 9.000
124.900 6.000
125.000 3.000
125.100 6.000
125.200 3.000
125.300 3.000
125.400 0.000
125.500 0.000
125.600 3.000
125.700 3.000
125.800 0.000
125.900 0.000
126.000 0.000
126.100 0.000
126.200 0.000
126.300 0.000
126.400 0.000
126.500 3.000
126.600 0.000
126.700 3.000
126.800 0.000
126.900 0.000
127.000 6.000
127.100 9.000
127.200 6.000
127.300 0.000
127.400 0.000
127.500 9.000
127.600 3.000
127.700 0.000
127.800 3.000
127.900 3.000
128.000 0.000
128.100 0.000
128.200 3.000
128.300 6.000
128.400 6.000
128.500 0.000
128.600 0.000
128.700 3.000
128.800 0.000
128.900 0.000
129.000 6.000
129.100 3.000
129.200 0.000
129.300 3.000
129.400 6.000
129.500 0.000
129.600 0.000
129.700 3.000
129.800 0.000
129.900 9.000
130.000 0.000
130.100 0.000
130.200 9.000
130.300 0.000
130.400 6.000
130.500 0.000
130.600 0.000
130.700 6.000
130.800 3.000
130.900 3.000
131.000 3.000
131.100 6.000
131.200 3.000
131.300 3.000
131.400 0.000
131.500 0.000
131.600 6.000
131.700 6.000
131.800 0.000
131.900 6.000
132.000 6.000
132.100 0.000
132.200 9.000
132.300 0.000
132.400 0.000
132.500 0.000
132.600 0.000
132.700 0.000
132.800 0.000
132.900 0.000
133.000 3.000
133.100 0.000
133.200 0.000
133.300 3.000
133.400 0.000
133.500 0.000
133.600 0.000
133.700 6.000
133.800 0.000
133.900 0.000
134.000 6.000
134.100 3.000
134.200 0.000
134.300 3.000
134.400 0.000
134.500 3.000
134.600 0.000
134.700 0.000
134.800 0.000
134.900 3.000
135.000 3.000
135.100 6.000
135.200 0.000
135.300 0.000
135.400 0.000
135.500 3.000
135.600 0.000
135.700 3.000
135.800 0.000
135.900 0.000
136.000 3.000
136.100 3.000
136.200 0.000
136.300 3.000
136.400 3.000
136.500 0.000
136.600 0.000
136.700 3.000
136.800 6.000
136.900 3.000
137.000 0.000
137.100 3.000
137.200 3.000
137.300 3.000
137.400 6.000
137.500 9.000
137.600 6.000
137.700 3.000
137.800 3.000
137.900 3.000
138.000 3.000
138.100 9.000
138.200 0.000
138.300 0.000
138.400 9.000
138.500 6.000
138.600 0.000
138.700 6.000
138.800 0.000
138.900 3.000
139.000 0.000
139.100 0.000
139.200 0.000
139.300 6.000
139.400 0.000
139.500 6.000
139.600 0.000
139.700 0.000
139.800 6.000
139.900 0.000
140.000 0.000
140.100 0.000
140.200 3.000
140.300 3.000
140.400 0.000
140.500 3.000
140.600 0.000
140.700 3.000
140.800 3.000
140.900 0.000
141.000 6.000
141.100 0.000
141.200 3.000
141.300 0.000
141.400 3.000
141.500 0.000
141.600 3.000
141.700 6.000
141.800 3.000
141.900 3.000
142.000 0.000
142.100 6.000
142.200 0.000
142.300 3.000
142.400 0.000
142.500 3.000
142.600 3.000
142.700 0.000
142.800 3.000
142.900 0.000
143.000 6.000
143.100 0.000
143.200 3.000
143.300 0.000
143.400 3.000
143.500 0.000
143.600 0.000
143.700 0.000
143.800 3.000
143.900 3.000
144.000 3.000
144.100 0.000
144.200 0.000
144.300 0.000
144.400 0.000
144.500 6.000
144.600 3.000
144.700 0.000
144.800 0.000
144.900 6.000
145.000 3.000
145.100 0.000
145.200 0.000
145.300 6.000
145.400 0.000
145.500 3.000
145.600 0.000
145.700 0.000
145.800 3.000
145.900 3.000
146.000 0.000
146.100 0.000
146.200 3.000
146.300 0.000
146.400 0.000
146.500 0.000
146.600 0.000
146.700 6.000
146.800 0.000
146.900 6.000
147.000 3.000
147.100 0.000
147.200 3.000
147.300 0.000
147.400 3.000
147.500 3.000
147.600 0.000
147.700 3.000
147.800 3.000
147.900 0.000
148.000 3.000
148.100 0.000
148.200 0.000
148.300 3.000
148.400 0.000
148.500 0.000
148.600 3.000
148.700 0.000
148.800 0.000
148.900 6.000
149.000 0.000
149.100 0.000
149.200 3.000
149.300 3.000
149.400 3.000
149.500 6.000
149.600 0.000
149.700 3.000
149.800 3.000
149.900 0.000
150.000 3.000
150.100 0.000
150.200 0.000
150.300 0.000
150.400 0.000
150.500 0.000
150.600 3.000
150.700 0.000
150.800 3.000
150.900 0.000
151.000 3.000
151.100 3.000
151.200 3.000
151.300 0.000
151.400 0.000
151.500 6.000
151.600 3.000
151.700 6.000
151.800 0.000
151.900 0.000
152.000 6.000
152.100 0.000
152.200 9.000
152.300 0.000
152.400 0.000
152.500 3.000
152.600 3.000
152.700 3.000
152.800 0.000
152.900 3.000
153.000 3.000
153.100 6.000
153.200 3.000
153.300 6.000
153.400 6.000
153.500 3.000
153.600 3.000
153.700 0.000
153.800 3.000
153.900 0.000
154.000 6.000
154.100 6.000
154.200 3.000
154.300 3.000
154.400 0.000
154.500 0.000
154.600 3.000
154.700 6.000
154.800 0.000
154.900 3.000
155.000 0.000
155.100 0.000
155.200 3.000
155.300 6.000
155.400 9.000
155.500 0.000
155.600 3.000
155.700 3.000
155.800 9.000
155.900 6.000
156.000 0.000
156.100 3.000
156.200 3.000
156.300 0.000
156.400 3.000
156.500 0.000
156.600 0.000
156.700 6.000
156.800 3.000
156.900 0.000
157.000 0.000
157.100 0.000
157.200 3.000
157.300 6.000
157.400 3.000
157.500 0.000
157.600 3.000
157.700 0.000
157.800 0.000
157.900 6.000
158.000 0.000
158.100 3.000
158.200 0.000
158.300 3.000
158.400 3.000
158.500 0.000
158.600 0.000
158.700 0.000
158.800 0.000
158.900 6.000
159.000 3.000
159.100 6.000
159.200 0.000
159.300 0.000
159.400 0.000
159.500 9.000
159.600 3.000
159.700 3.000
159.800 6.000
159.900 0.000
160.000 3.000
160.100 3.000
160.200 3.000
160.300 6.000
160.400 0.000
160.500 0.000
160.600 0.000
160.700 0.000
160.800 3.000
160.900 0.000
161.000 0.000
161.100 0.000
161.200 0.000
161.300 6.000
161.400 3.000
161.500 0.000
161.600 3.000
161.700 0.000
161.800 0.000
161.900 3.000
162.000 3.000
162.100 0.000
162.200 0.000
162.300 3.000
162.400 0.000
162.500 0.000
162.600 3.000
162.700 6.000
162.800 3.000
162.900 12.000
163.000 0.000
163.100 12.000
163.200 0.000
163.300 0.000
163.400 0.000
163.500 0.000
163.600 3.000
163.700 3.000
163.800 3.000
163.900 3.000
164.000 3.000
164.100 6.000
164.200 3.000
164.300 6.000
164.400 9.000
164.500 9.000
164.600 3.000
164.700 3.000
164.800 0.000
164.900 6.000
165.000 0.000
165.100 3.000
165.200 3.000
165.300 0.000
165.400 0.000
165.500 0.000
165.600 3.000
165.700 0.000
165.800 6.000
165.900 0.000
166.000 9.000
166.100 3.000
166.200 3.000
166.300 0.000
166.400 6.000
166.500 3.000
166.600 0.000
166.700 0.000
166.800 0.000
166.900 0.000
167.000 0.000
167.100 3.000
167.200 0.000
167.300 0.000
167.400 0.000
167.500 3.000
167.600 3.000
167.700 0.000
167.800 3.000
167.900 0.000
168.000 3.000
168.100 3.000
168.200 3.000
168.300 3.000
168.400 0.000
168.500 3.000
168.600 0.000
168.700 3.000
168.800 0.000
168.900 3.000
169.000 9.000
169.100 6.000
169.200 3.000
169.300 6.000
169.400 6.000
169.500 0.000
169.600 0.000
169.700 3.000
169.800 0.000
169.900 0.000
170.000 0.000
170.100 0.000
170.200 3.000
170.300 3.000
170.400 3.000
170.500 3.000
170.600 6.000
170.700 0.000
170.800 0.000
170.900 6.000
171.000 12.000
171.100 0.000
171.200 6.000
171.300 3.000
171.400 0.000
171.500 0.000
171.600 0.000
171.700 12.000
171.800 3.000
171.900 3.000
172.000 15.000
172.100 3.000
172.200 3.000
172.300 0.000
172.400 9.000
172.500 6.000
172.600 3.000
172.700 6.000
172.800 0.000
172.900 3.000
173.000 3.000
173.100 0.000
173.200 6.000
173.300 9.000
173.400 3.000
173.500 0.000
173.600 0.000
173.700 6.000
173.800 0.000
173.900 0.000
174.000 6.000
174.100 12.000
174.200 3.000
174.300 0.000
174.400 6.000
174.500 3.000
174.600 0.000
174.700 6.000
174.800 3.000
174.900 6.000
175.000 0.000
175.100 6.000
175.200 9.000
175.300 0.000
175.400 9.000
175.500 0.000
175.600 6.000
175.700 6.000
175.800 6.000
175.900 9.000
176.000 6.000
176.100 12.000
176.200 6.000
176.300 6.000
176.400 9.000
176.500 12.000
176.600 6.000
176.700 21.000
176.800 6.000
176.900 12.000
177.000 15.000
177.100 18.000
177.200 15.000
177.300 12.000
177.400 3.000
177.500 9.000
177.600 6.000
177.700 21.000
177.800 27.000
177.900 15.000
178.000 36.000
178.100 30.000
178.200 54.000
178.300 48.000
178.400 48.000
178.500 84.000
178.600 81.000
178.700 129.000
178.800 120.000
178.900 186.000
179.000 234.000
179.100 330.000
179.200 432.000
179.300 555.000
179.400 768.000
179.500 903.000
179.600 1191.000
179.700 1434.000
179.800 1638.000
179.900 1818.000
180.000 1764.000
180.100 1680.000
180.200 1527.000
180.300 1392.000
180.400 1131.000
180.500 936.000
180.600 717.000
180.700 594.000
180.800 465.000
180.900 300.000
181.000 267.000
181.100 159.000
181.200 129.000
181.300 117.000
181.400 90.000
181.500 75.000
181.600 45.000
181.700 42.000
181.800 27.000
181.900 36.000
182.000 33.000
182.100 42.000
182.200 21.000
182.300 9.000
182.400 27.000
182.500 12.000
182.600 21.000
182.700 15.000
182.800 15.000
182.900 9.000
183.000 27.000
183.100 6.000
183.200 3.000
183.300 3.000
183.400 6.000
183.500 12.000
183.600 6.000
183.700 9.000
183.800 18.000
183.900 6.000
184.000 6.000
184.100 0.000
184.200 3.000
184.300 12.000
184.400 3.000
184.500 3.000
184.600 9.000
184.700 12.000
184.800 6.000
184.900 0.000
185.000 3.000
185.100 0.000
185.200 6.000
185.300 0.000
185.400 3.000
185.500 0.000
185.600 6.000
185.700 3.000
185.800 0.000
185.900 3.000
186.000 3.000
186.100 3.000
186.200 3.000
186.300 0.000
186.400 0.000
186.500 6.000
186.600 3.000
186.700 3.000
186.800 0.000
186.900 6.000
187.000 0.000
187.100 3.000
187.200 0.000
187.300 9.000
187.400 3.000
187.500 0.000
187.600 9.000
187.700 6.000
187.800 9.000
187.900 3.000
188.000 6.000
188.100 0.000
188.200 0.000
188.300 3.000
188.400 6.000
188.500 3.000
188.600 6.000
188.700 9.000
188.800 0.000
188.900 3.000
189.000 0.000
189.100 0.000
189.200 3.000
189.300 3.000
189.400 3.000
189.500 12.000
189.600 3.000
189.700 3.000
189.800 9.000
189.900 0.000
190.000 3.000
190.100 0.000
190.200 3.000
190.300 0.000
190.400 0.000
190.500 6.000
190.600 0.000
190.700 6.000
190.800 3.000
190.900 0.000
191.000 0.000
191.100 0.000
191.200 6.000
191.300 6.000
191.400 3.000
191.500 6.000
191.600 3.000
191.700 6.000
191.800 6.000
191.900 3.000
192.000 3.000
192.100 12.000
192.200 3.000
192.300 0.000
192.400 6.000
192.500 0.000
192.600 0.000
192.700 3.000
192.800 9.000
192.900 0.000
193.000 0.000
193.100 12.000
193.200 6.000
193.300 6.000
193.400 0.000
193.500 3.000
193.600 3.000
193.700 0.000
193.800 6.000
193.900 3.000
194.000 0.000
194.100 0.000
194.200 3.000
194.300 0.000
194.400 0.000
194.500 9.000
194.600 0.000
194.700 3.000
194.800 0.000
194.900 0.000
195.000 0.000
195.100 0.000
195.200 6.000
195.300 3.000
195.400 0.000
195.500 0.000
195.600 6.000
195.700 3.000
195.800 6.000
195.900 0.000
196.000 0.000
196.100 0.000
196.200 6.000
196.300 3.000
196.400 9.000
196.500 3.000
196.600 6.000
196.700 0.000
196.800 3.000
196.900 3.000
197.000 6.000
197.100 0.000
197.200 3.000
197.300 9.000
197.400 3.000
197.500 3.000
197.600 3.000
197.700 0.000
197.800 0.000
197.900 3.000
198.000 0.000
198.100 3.000
198.200 0.000
198.300 0.000
198.400 0.000
198.500 0.000
198.600 6.000
198.700 0.000
198.800 0.000
198.900 0.000
199.000 12.000
199.100 0.000
199.200 3.000
199.300 3.000
199.400 3.000
199.500 0.000
199.600 0.000
199.700 6.000
199.800 0.000
199.900 3.000
200.000 0.000
200.100 3.000
200.200 0.000
200.300 0.000
200.400 3.000
200.500 0.000
200.600 3.000
200.700 3.000
200.800 0.000
200.900 0.000
201.000 0.000
201.100 9.000
201.200 3.000
201.300 0.000
201.400 0.000
201.500 0.000
201.600 0.000
201.700 0.000
201.800 6.000
201.900 3.000
202.000 0.000
202.100 0.000
202.200 6.000
202.300 9.000
202.400 3.000
202.500 3.000
202.600 3.000
202.700 0.000
202.800 0.000
202.900 0.000
203.000 0.000
203.100 3.000
203.200 3.000
203.300 6.000
203.400 3.000
203.500 12.000
203.600 6.000
203.700 0.000
203.800 6.000
203.900 0.000
204.000 0.000
204.100 0.000
204.200 3.000
204.300 6.000
204.400 3.000
204.500 3.000
204.600 3.000
204.700 9.000
204.800 3.000
204.900 3.000
205.000 6.000
205.100 0.000
205.200 9.000
205.300 9.000
205.400 3.000
205.500 3.000
205.600 0.000
205.700 0.000
205.800 3.000
205.900 0.000
206.000 0.000
206.100 0.000
206.200 12.000
206.300 3.000
206.400 0.000
206.500 0.000
206.600 0.000
206.700 3.000
206.800 3.000
206.900 6.000
207.000 3.000
207.100 3.000
207.200 0.000
207.300 0.000
207.400 0.000
207.500 0.000
207.600 6.000
207.700 0.000
207.800 3.000
207.900 3.000
208.000 3.000
208.100 3.000
208.200 6.000
208.300 12.000
208.400 0.000
208.500 3.000
208.600 0.000
208.700 6.000
208.800 0.000
208.900 0.000
209.000 6.000
209.100 0.000
209.200 3.000
209.300 3.000
209.400 6.000
209.500 6.000
209.600 3.000
209.700 0.000
209.800 0.000
209.900 0.000
210.000 0.000
210.100 0.000
210.200 0.000
210.300 0.000
210.400 0.000
210.500 3.000
210.600 0.000
210.700 3.000
210.800 6.000
210.900 0.000
211.000 0.000
211.100 0.000
211.200 6.000
211.300 3.000
211.400 0.000
211.500 3.000
211.600 0.000
211.700 0.000
211.800 0.000
211.900 3.000
212.000 0.000
212.100 3.000
212.200 0.000
212.300 12.000
212.400 3.000
212.500 3.000
212.600 9.000
212.700 0.000
212.800 0.000
212.900 3.000
213.000 3.000
213.100 3.000
213.200 3.000
213.300 0.000
213.400 3.000
213.500 6.000
213.600 0.000
213.700 3.000
213.800 9.000
213.900 0.000
214.000 0.000
214.100 6.000
214.200 0.000
214.300 0.000
214.400 3.000
214.500 0.000
214.600 6.000
214.700 3.000
214.800 3.000
214.900 3.000
215.000 0.000
215.100 0.000
215.200 0.000
215.300 3.000
215.400 3.000
215.500 6.000
215.600 3.000
215.700 6.000
215.800 0.000
215.900 0.000
216.000 3.000
216.100 0.000
216.200 0.000
216.300 0.000
216.400 6.000
216.500 3.000
216.600 0.000
216.700 0.000
216.800 3.000
216.900 6.000
217.000 0.000
217.100 3.000
217.200 3.000
217.300 6.000
217.400 0.000
217.500 0.000
217.600 3.000
217.700 0.000
217.800 0.000
217.900 3.000
218.000 3.000
218.100 0.000
218.200 0.000
218.300 3.000
218.400 0.000
218.500 0.000
218.600 0.000
218.700 3.000
218.800 0.000
218.900 3.000
219.000 0.000
219.100 3.000
219.200 3.000
219.300 6.000
219.400 0.000
219.500 0.000
219.600 3.000
219.700 6.000
219.800 9.000
219.900 0.000
220.000 3.000
220.100 3.000
220.200 0.000
220.300 3.000
220.400 0.000
220.500 3.000
220.600 3.000
220.700 0.000
220.800 6.000
220.900 3.000
221.000 3.000
221.100 6.000
221.200 0.000
221.300 0.000
221.400 3.000
221.500 3.000
221.600 0.000
221.700 0.000
221.800 3.000
221.900 0.000
222.000 3.000
222.100 3.000
222.200 6.000
222.300 3.000
222.400 9.000
222.500 6.000
222.600 3.000
222.700 0.000
222.800 0.000
222.900 3.000
223.000 0.000
223.100 6.000
223.200 6.000
223.300 3.000
223.400 3.000
223.500 3.000
223.600 0.000
223.700 6.000
223.800 9.000
223.900 0.000
224.000 3.000
224.100 0.000
224.200 0.000
224.300 3.000
224.400 6.000
224.500 0.000
224.600 0.000
224.700 0.000
224.800 0.000
224.900 6.000
225.000 6.000
225.100 3.000
225.200 0.000
225.300 0.000
225.400 0.000
225.500 6.000
225.600 0.000
225.700 3.000
225.800 0.000
225.900 6.000
226.000 3.000
226.100 6.000
226.200 0.000
226.300 0.000
226.400 6.000
226.500 3.000
226.600 0.000
226.700 3.000
226.800 6.000
226.900 0.000
227.000 3.000
227.100 3.000
227.200 0.000
227.300 0.000
227.400 3.000
227.500 0.000
227.600 3.000
227.700 3.000
227.800 3.000
227.900 3.000
228.000 0.000
228.100 0.000
228.200 3.000
228.300 0.000
228.400 9.000
228.500 0.000
228.600 0.000
228.700 0.000
228.800 3.000
228.900 0.000
229.000 3.000
229.100 3.000
229.200 0.000
229.300 6.000
229.400 0.000
229.500 3.000
229.600 3.000
229.700 3.000
229.800 0.000
229.900 3.000
230.000 6.000
230.100 6.000
230.200 0.000
230.300 3.000
230.400 0.000
230.500 0.000
230.600 6.000
230.700 0.000
230.800 0.000
230.900 0.000
231.000 0.000
231.100 0.000
231.200 0.000
231.300 3.000
231.400 9.000
231.500 0.000
231.600 0.000
231.700 6.000
231.800 3.000
231.900 6.000
232.000 3.000
232.100 6.000
232.200 6.000
232.300 3.000
232.400 3.000
232.500 3.000
232.600 3.000
232.700 3.000
232.800 3.000
232.900 3.000
233.000 3.000
233.100 6.000
233.200 0.000
233.300 3.000
233.400 6.000
233.500 0.000
233.600 0.000
233.700 6.000
233.800 3.000
233.900 3.000
234.000 3.000
234.100 0.000
234.200 3.000
234.300 0.000
234.400 0.000
234.500 6.000
234.600 0.000
234.700 3.000
234.800 0.000
234.900 3.000
235.000 3.000
235.100 0.000
235.200 0.000
235.300 0.000
235.400 3.000
235.500 0.000
235.600 9.000
235.700 6.000
235.800 6.000
235.900 3.000
236.000 3.000
236.100 6.000
236.200 3.000
236.300 3.000
236.400 3.000
236.500 3.000
236.600 3.000
236.700 0.000
236.800 0.000
236.900 0.000
237.000 0.000
237.100 3.000
237.200 3.000
237.300 6.000
237.400 6.000
237.500 3.000
237.600 6.000
237.700 0.000
237.800 0.000
237.900 0.000
238.000 0.000
238.100 0.000
238.200 3.000
238.300 0.000
238.400 6.000
238.500 0.000
238.600 0.000
238.700 9.000
238.800 3.000
238.900 9.000
239.000 9.000
239.100 6.000
239.200 12.000
239.300 18.000
239.400 9.000
239.500 9.000
239.600 15.000
239.700 21.000
239.800 12.000
239.900 15.000
240.000 3.000
240.100 24.000
240.200 21.000
240.300 15.000
240.400 15.000
240.500 9.000
240.600 12.000
240.700 3.000
240.800 6.000
240.900 15.000
241.000 9.000
241.100 6.000
241.200 0.000
241.300 3.000
241.400 0.000
241.500 3.000
241.600 3.000
241.700 3.000
241.800 6.000
241.900 0.000
242.000 0.000
242.100 6.000
242.200 0.000
242.300 6.000
242.400 0.000
242.500 3.000
242.600 3.000
242.700 0.000
242.800 0.000
242.900 3.000
243.000 6.000
243.100 6.000
243.200 0.000
243.300 0.000
243.400 6.000
243.500 0.000
243.600 0.000
243.700 3.000
243.800 0.000
243.900 0.000
244.000 6.000
244.100 6.000
244.200 3.000
244.300 0.000
244.400 3.000
244.500 3.000
244.600 6.000
244.700 6.000
244.800 0.000
244.900 3.000
245.000 3.000
245.100 0.000
245.200 0.000
245.300 0.000
245.400 0.000
245.500 0.000
245.600 0.000
245.700 3.000
245.800 0.000
245.900 6.000
246.000 3.000
246.100 0.000
246.200 6.000
246.300 0.000
246.400 0.000
246.500 3.000
246.600 3.000
246.700 3.000
246.800 0.000
246.900 3.000
247.000 0.000
247.100 3.000
247.200 3.000
247.300 3.000
247.400 3.000
247.500 0.000
247.600 0.000
247.700 6.000
247.800 0.000
247.900 3.000
248.000 6.000
248.100 3.000
248.200 6.000
248.300 0.000
248.400 6.000
248.500 3.000
248.600 6.000
248.700 0.000
248.800 0.000
248.900 0.000
249.000 0.000
249.100 3.000
249.200 0.000
249.300 6.000
249.400 3.000
249.500 3.000
249.600 0.000
249.700 6.000
249.800 9.000
249.900 0.000
250.000 3.000
250.100 0.000
250.200 3.000
250.300 0.000
250.400 3.000
250.500 0.000
250.600 3.000
250.700 3.000
250.800 9.000
250.900 6.000
251.000 9.000
251.100 0.000
251.200 0.000
251.300 3.000
251.400 3.000
251.500 3.000
251.600 0.000
251.700 0.000
251.800 0.000
251.900 9.000
252.000 9.000
252.100 6.000
252.200 3.000
252.300 3.000
252.400 0.000
252.500 0.000
252.600 0.000
252.700 3.000
252.800 3.000
252.900 0.000
253.000 3.000
253.100 0.000
253.200 6.000
253.300 3.000
253.400 3.000
253.500 6.000
253.600 3.000
253.700 6.000
253.800 3.000
253.900 3.000
254.000 0.000
254.100 0.000
254.200 3.000
254.300 0.000
254.400 6.000
254.500 3.000
254.600 6.000
254.700 0.000
254.800 0.000
254.900 0.000
255.000 0.000
255.100 0.000
255.200 6.000
255.300 3.000
255.400 0.000
255.500 0.000
255.600 3.000
255.700 3.000
255.800 0.000
255.900 3.000
256.000 0.000
256.100 3.000
256.200 6.000
256.300 0.000
256.400 0.000
256.500 0.000
256.600 12.000
256.700 9.000
256.800 3.000
256.900 9.000
257.000 6.000
257.100 3.000
257.200 0.000
257.300 0.000
257.400 3.000
257.500 0.000
257.600 0.000
257.700 3.000
257.800 3.000
257.900 0.000
258.000 0.000
258.100 0.000
258.200 0.000
258.300 0.000
258.400 9.000
258.500 0.000
258.600 3.000
258.700 0.000
258.800 3.000
258.900 0.000
259.000 3.000
259.100 0.000
259.200 3.000
259.300 3.000
259.400 3.000
259.500 0.000
259.600 0.000
259.700 3.000
259.800 0.000
259.900 3.000
260.000 3.000
260.100 0.000
260.200 0.000
260.300 0.000
260.400 0.000
260.500 6.000
260.600 3.000
260.700 6.000
260.800 3.000
260.900 0.000
261.000 0.000
261.100 3.000
261.200 3.000
261.300 6.000
261.400 0.000
261.500 0.000
261.600 3.000
261.700 3.000
261.800 3.000
261.900 6.000
262.000 3.000
262.100 0.000
262.200 0.000
262.300 9.000
262.400 9.000
262.500 0.000
262.600 0.000
262.700 0.000
262.800 3.000
262.900 6.000
263.000 0.000
263.100 3.000
263.200 3.000
263.300 3.000
263.400 6.000
263.500 6.000
263.600 0.000
263.700 0.000
263.800 3.000
263.900 0.000
264.000 6.000
264.100 3.000
264.200 6.000
264.300 0.000
264.400 3.000
264.500 0.000
264.600 0.000
264.700 0.000
264.800 0.000
264.900 3.000
265.000 0.000
265.100 0.000
265.200 0.000
265.300 6.000
265.400 3.000
265.500 6.000
265.600 3.000
265.700 3.000
265.800 6.000
265.900 0.000
266.000 0.000
266.100 3.000
266.200 3.000
266.300 0.000
266.400 3.000
266.500 0.000
266.600 3.000
266.700 6.000
266.800 0.000
266.900 0.000
267.000 3.000
267.100 3.000
267.200 0.000
267.300 0.000
267.400 3.000
267.500 0.000
267.600 9.000
267.700 6.000
267.800 3.000
267.900 6.000
268.000 0.000
268.100 0.000
268.200 0.000
268.300 0.000
268.400 0.000
268.500 0.000
268.600 0.000
268.700 3.000
268.800 3.000
268.900 3.000
269.000 3.000
269.100 6.000
269.200 0.000
269.300 3.000
269.400 0.000
269.500 0.000
269.600 0.000
269.700 12.000
269.800 0.000
269.900 3.000
270.000 0.000
270.100 0.000
270.200 3.000
270.300 0.000
270.400 3.000
270.500 3.000
270.600 0.000
270.700 0.000
270.800 6.000
270.900 3.000
271.000 6.000
271.100 3.000
271.200 0.000
271.300 3.000
271.400 3.000
271.500 0.000
271.600 3.000
271.700 9.000
271.800 0.000
271.900 3.000
272.000 6.000
272.100 0.000
272.200 3.000
272.300 0.000
272.400 0.000
272.500 3.000
272.600 6.000
272.700 0.000
272.800 3.000
272.900 6.000
273.000 0.000
273.100 3.000
273.200 3.000
273.300 3.000
273.400 0.000
273.500 3.000
273.600 0.000
273.700 0.000
273.800 0.000
273.900 0.000
274.000 3.000
274.100 0.000
274.200 3.000
274.300 0.000
274.400 3.000
274.500 6.000
274.600 6.000
274.700 3.000
274.800 3.000
274.900 6.000
275.000 3.000
275.100 0.000
275.200 3.000
275.300 3.000
275.400 6.000
275.500 3.000
275.600 0.000
275.700 0.000
275.800 6.000
275.900 6.000
276.000 0.000
276.100 3.000
276.200 3.000
276.300 6.000
276.400 0.000
276.500 0.000
276.600 0.000
276.700 3.000
276.800 0.000
276.900 6.000
277.000 0.000
277.100 3.000
277.200 3.000
277.300 0.000
277.400 0.000
277.500 3.000
277.600 0.000
277.700 3.000
277.800 6.000
277.900 0.000
278.000 3.000
278.100 0.000
278.200 0.000
278.300 6.000
278.400 3.000
278.500 0.000
278.600 3.000
278.700 0.000
278.800 3.000
278.900 0.000
279.000 3.000
279.100 3.000
279.200 3.000
279.300 3.000
279.400 6.000
279.500 0.000
279.600 0.000
279.700 0.000
279.800 3.000
279.900 9.000
280.000 0.000
280.100 3.000
280.200 6.000
280.300 0.000
280.400 3.000
280.500 0.000
280.600 0.000
280.700 3.000
280.800 0.000
280.900 9.000
281.000 3.000
281.100 0.000
281.200 3.000
281.300 0.000
281.400 9.000
281.500 6.000
281.600 0.000
281.700 3.000
281.800 3.000
281.900 3.000
282.000 9.000
282.100 6.000
282.200 3.000
282.300 0.000
282.400 3.000
282.500 6.000
282.600 0.000
282.700 3.000
282.800 3.000
282.900 3.000
283.000 3.000
283.100 0.000
283.200 0.000
283.300 0.000
283.400 0.000
283.500 3.000
283.600 0.000
283.700 6.000
283.800 0.000
283.900 0.000
284.000 3.000
284.100 3.000
284.200 3.000
284.300 6.000
284.400 12.000
284.500 0.000
284.600 3.000
284.700 0.000
284.800 0.000
284.900 3.000
285.000 0.000
285.100 0.000
285.200 6.000
285.300 0.000
285.400 0.000
285.500 3.000
285.600 0.000
285.700 0.000
285.800 3.000
285.900 0.000
286.000 0.000
286.100 0.000
286.200 3.000
286.300 0.000
286.400 0.000
286.500 0.000
286.600 3.000
286.700 0.000
286.800 0.000
286.900 3.000
287.000 3.000
287.100 6.000
287.200 3.000
287.300 3.000
287.400 0.000
287.500 3.000
287.600 3.000
287.700 3.000
287.800 3.000
287.900 3.000
288.000 0.000
288.100 3.000
288.200 3.000
288.300 0.000
288.400 0.000
288.500 0.000
288.600 0.000
288.700 9.000
288.800 6.000
288.900 0.000
289.000 6.000
289.100 0.000
289.200 0.000
289.300 0.000
289.400 0.000
289.500 0.000
289.600 3.000
289.700 0.000
289.800 3.000
289.900 3.000
290.000 0.000
290.100 3.000
290.200 0.000
290.300 0.000
290.400 3.000
290.500 0.000
290.600 0.000
290.700 3.000
290.800 3.000
290.900 0.000
291.000 3.000
291.100 0.000
291.200 0.000
291.300 0.000
291.400 0.000
291.500 0.000
291.600 0.000
291.700 6.000
291.800 0.000
291.900 3.000
292.000 3.000
292.100 9.000
292.200 6.000
292.300 6.000
292.400 0.000
292.500 6.000
292.600 0.000
292.700 3.000
292.800 3.000
292.900 0.000
293.000 3.000
293.100 6.000
293.200 3.000
293.300 0.000
293.400 9.000
293.500 3.000
293.600 0.000
293.700 3.000
293.800 3.000
293.900 3.000
294.000 0.000
294.100 0.000
294.200 0.000
294.300 3.000
294.400 6.000
294.500 3.000
294.600 6.000
294.700 9.000
294.800 12.000
294.900 6.000
295.000 0.000
295.100 3.000
295.200 6.000
295.300 9.000
295.400 3.000
295.500 6.000
295.600 0.000
295.700 9.000
295.800 9.000
295.900 6.000
296.000 18.000
296.100 0.000
296.200 6.000
296.300 6.000
296.400 0.000
296.500 3.000
296.600 6.000
296.700 9.000
296.800 6.000
296.900 12.000
297.000 12.000
297.100 15.000
297.200 9.000
297.300 3.000
297.400 6.000
297.500 12.000
297.600 15.000
297.700 12.000
297.800 15.000
297.900 15.000
298.000 27.000
298.100 57.000
298.200 45.000
298.300 39.000
298.400 60.000
298.500 66.000
298.600 81.000
298.700 93.000
298.800 120.000
298.900 168.000
299.000 219.000
299.100 294.000
299.200 369.000
299.300 429.000
299.400 663.000
299.500 795.000
299.600 1035.000
299.700 1314.000
299.800 1599.000
299.900 1779.000
300.000 1860.000
300.100 1848.000
300.200 1704.000
300.300 1443.000
300.400 1455.000
300.500 1035.000
300.600 870.000
300.700 651.000
300.800 450.000
300.900 369.000
301.000 279.000
301.100 219.000
301.200 159.000
301.300 120.000
301.400 99.000
301.500 72.000
301.600 75.000
301.700 27.000
301.800 60.000
301.900 48.000
302.000 18.000
302.100 21.000
302.200 21.000
302.300 30.000
302.400 21.000
302.500 15.000
302.600 21.000
302.700 18.000
302.800 21.000
302.900 6.000
303.000 12.000
303.100 6.000
303.200 6.000
303.300 9.000
303.400 15.000
303.500 9.000
303.600 6.000
303.700 6.000
303.800 6.000
303.900 0.000
304.000 9.000
304.100 3.000
304.200 0.000
304.300 3.000
304.400 3.000
304.500 12.000
304.600 9.000
304.700 12.000
304.800 3.000
304.900 0.000
305.000 0.000
305.100 0.000
305.200 3.000
305.300 3.000
305.400 6.000
305.500 3.000
305.600 0.000
305.700 3.000
305.800 6.000
305.900 3.000
306.000 9.000
306.100 3.000
306.200 0.000
306.300 3.000
306.400 0.000
306.500 0.000
306.600 3.000
306.700 0.000
306.800 0.000
306.900 3.000
307.000 3.000
307.100 9.000
307.200 0.000
307.300 3.000
307.400 0.000
307.500 3.000
307.600 3.000
307.700 3.000
307.800 3.000
307.900 6.000
308.000 3.000
308.100 0.000
308.200 6.000
308.300 0.000
308.400 6.000
308.500 0.000
308.600 12.000
308.700 0.000
308.800 3.000
308.900 0.000
309.000 12.000
309.100 0.000
309.200 9.000
309.300 0.000
309.400 0.000
309.500 0.000
309.600 3.000
309.700 0.000
309.800 6.000
309.900 3.000
310.000 3.000
310.100 0.000
310.200 0.000
310.300 3.000
310.400 0.000
310.500 3.000
310.600 0.000
310.700 0.000
310.800 3.000
310.900 6.000
311.000 9.000
311.100 3.000
311.200 0.000
311.300 3.000
311.400 3.000
311.500 0.000
311.600 3.000
311.700 0.000
311.800 3.000
311.900 0.000
312.000 3.000
312.100 3.000
312.200 0.000
312.300 0.000
312.400 0.000
312.500 3.000
312.600 0.000
312.700 0.000
312.800 3.000
312.900 3.000
313.000 0.000
313.100 0.000
313.200 3.000
313.300 3.000
313.400 3.000
313.500 0.000
313.600 3.000
313.700 9.000
313.800 0.000
313.900 6.000
314.000 9.000
314.100 3.000
314.200 3.000
314.300 9.000
314.400 0.000
314.500 3.000
314.600 3.000
314.700 0.000
314.800 3.000
314.900 0.000
315.000 3.000
315.100 3.000
315.200 3.000
315.300 3.000
315.400 0.000
315.500 0.000
315.600 3.000
315.700 3.000
315.800 3.000
315.900 3.000
316.000 3.000
316.100 6.000
316.200 3.000
316.300 3.000
316.400 0.000
316.500 3.000
316.600 6.000
316.700 6.000
316.800 3.000
316.900 0.000
317.000 0.000
317.100 0.000
317.200 6.000
317.300 0.000
317.400 6.000
317.500 3.000
317.600 9.000
317.700 6.000
317.800 0.000
317.900 3.000
318.000 0.000
318.100 0.000
318.200 3.000
318.300 6.000
318.400 0.000
318.500 0.000
318.600 0.000
318.700 0.000
318.800 0.000
318.900 9.000
319.000 9.000
319.100 3.000
319.200 3.000
319.300 3.000
319.400 3.000
319.500 3.000
319.600 0.000
319.700 3.000
319.800 3.000
319.900 3.000
320.000 9.000
320.100 0.000
320.200 3.000
320.300 0.000
320.400 0.000
320.500 3.000
320.600 6.000
320.700 0.000
320.800 3.000
320.900 0.000
321.000 6.000
321.100 3.000
321.200 3.000
321.300 0.000
321.400 0.000
321.500 0.000
321.600 9.000
321.700 12.000
321.800 0.000
321.900 3.000
322.000 0.000
322.100 3.000
322.200 6.000
322.300 0.000
322.400 0.000
322.500 0.000
322.600 0.000
322.700 0.000
322.800 6.000
322.900 0.000
323.000 3.000
323.100 0.000
323.200 3.000
323.300 3.000
323.400 0.000
323.500 3.000
323.600 6.000
323.700 3.000
323.800 0.000
323.900 3.000
324.000 3.000
324.100 0.000
324.200 0.000
324.300 6.000
324.400 3.000
324.500 3.000
324.600 3.000
324.700 0.000
324.800 6.000
324.900 6.000
325.000 3.000
325.100 3.000
325.200 0.000
325.300 0.000
325.400 6.000
325.500 0.000
325.600 0.000
325.700 0.000
325.800 3.000
325.900 3.000
326.000 0.000
326.100 0.000
326.200 6.000
326.300 0.000
326.400 6.000
326.500 3.000
326.600 0.000
326.700 0.000
326.800 0.000
326.900 3.000
327.000 6.000
327.100 6.000
327.200 3.000
327.300 0.000
327.400 6.000
327.500 3.000
327.600 0.000
327.700 9.000
327.800 0.000
327.900 3.000
328.000 3.000
328.100 3.000
328.200 0.000
328.300 3.000
328.400 3.000
328.500 0.000
328.600 6.000
328.700 0.000
328.800 3.000
328.900 0.000
329.000 0.000
329.100 6.000
329.200 0.000
329.300 12.000
329.400 0.000
329.500 3.000
329.600 3.000
329.700 0.000
329.800 3.000
329.900 3.000
330.000 3.000
330.100 0.000
330.200 3.000
330.300 0.000
330.400 0.000
330.500 3.000
330.600 0.000
330.700 3.000
330.800 0.000
330.900 6.000
331.000 0.000
331.100 3.000
331.200 0.000
331.300 0.000
331.400 0.000
331.500 0.000
331.600 0.000
331.700 0.000
331.800 0.000
331.900 3.000
332.000 0.000
332.100 3.000
332.200 6.000
332.300 0.000
332.400 0.000
332.500 0.000
332.600 3.000
332.700 0.000
332.800 0.000
332.900 3.000
333.000 9.000
333.100 6.000
333.200 0.000
333.300 3.000
333.400 3.000
333.500 0.000
333.600 0.000
333.700 0.000
333.800 0.000
333.900 3.000
334.000 0.000
334.100 0.000
334.200 0.000
334.300 0.000
334.400 0.000
334.500 0.000
334.600 0.000
334.700 0.000
334.800 0.000
334.900 0.000
335.000 6.000
335.100 0.000
335.200 0.000
335.300 0.000
335.400 3.000
335.500 3.000
335.600 6.000
335.700 0.000
335.800 3.000
335.900 0.000
336.000 3.000
336.100 3.000
336.200 3.000
336.300 0.000
336.400 0.000
336.500 3.000
336.600 3.000
336.700 0.000
336.800 3.000
336.900 3.000
337.000 0.000
337.100 3.000
337.200 0.000
337.300 3.000
337.400 0.000
337.500 6.000
337.600 0.000
337.700 0.000
337.800 3.000
337.900 0.000
338.000 3.000
338.100 3.000
338.200 0.000
338.300 0.000
338.400 0.000
338.500 0.000
338.600 0.000
338.700 3.000
338.800 0.000
338.900 0.000
339.000 0.000
339.100 6.000
339.200 0.000
339.300 3.000
339.400 0.000
339.500 0.000
339.600 3.000
339.700 0.000
339.800 0.000
339.900 3.000
340.000 0.000
340.100 0.000
340.200 0.000
340.300 0.000
340.400 0.000
340.500 6.000
340.600 6.000
340.700 0.000
340.800 6.000
340.900 0.000
341.000 3.000
341.100 0.000
341.200 0.000
341.300 0.000
341.400 3.000
341.500 0.000
341.600 6.000
341.700 0.000
341.800 0.000
341.900 3.000
342.000 3.000
342.100 3.000
342.200 9.000
342.300 3.000
342.400 3.000
342.500 3.000
342.600 3.000
342.700 0.000
342.800 3.000
342.900 3.000
343.000 0.000
343.100 3.000
343.200 3.000
343.300 3.000
343.400 0.000
343.500 6.000
343.600 0.000
343.700 3.000
343.800 0.000
343.900 3.000
344.000 0.000
344.100 3.000
344.200 9.000
344.300 3.000
344.400 0.000
344.500 3.000
344.600 0.000
344.700 0.000
344.800 0.000
344.900 3.000
345.000 0.000
345.100 0.000
345.200 6.000
345.300 12.000
345.400 3.000
345.500 0.000
345.600 3.000
345.700 3.000
345.800 6.000
345.900 6.000
346.000 3.000
346.100 3.000
346.200 0.000
346.300 3.000
346.400 0.000
346.500 0.000
346.600 0.000
346.700 3.000
346.800 3.000
346.900 9.000
347.000 0.000
347.100 0.000
347.200 0.000
347.300 3.000
347.400 6.000
347.500 0.000
347.600 0.000
347.700 3.000
347.800 0.000
347.900 3.000
348.000 3.000
348.100 3.000
348.200 3.000
348.300 3.000
348.400 9.000
348.500 0.000
348.600 6.000
348.700 0.000
348.800 0.000
348.900 0.000
349.000 3.000
349.100 3.000
349.200 3.000
349.300 6.000
349.400 9.000
349.500 6.000
349.600 6.000
349.700 3.000
349.800 6.000
349.900 3.000
350.000 0.000
350.100 0.000
350.200 6.000
350.300 3.000
350.400 0.000
350.500 9.000
350.600 6.000
350.700 0.000
350.800 0.000
350.900 6.000
351.000 6.000
351.100 0.000
351.200 3.000
351.300 0.000
351.400 3.000
351.500 6.000
351.600 0.000
351.700 3.000
351.800 0.000
351.900 0.000
352.000 3.000
352.100 0.000
352.200 3.000
352.300 0.000
352.400 0.000
352.500 6.000
352.600 0.000
352.700 6.000
352.800 0.000
352.900 3.000
353.000 0.000
353.100 3.000
353.200 0.000
353.300 3.000
353.400 3.000
353.500 0.000
353.600 0.000
353.700 0.000
353.800 3.000
353.900 6.000
354.000 0.000
354.100 0.000
354.200 0.000
354.300 6.000
354.400 3.000
354.500 3.000
354.600 6.000
354.700 0.000
354.800 0.000
354.900 3.000
355.000 3.000
355.100 0.000
355.200 0.000
355.300 3.000
355.400 0.000
355.500 0.000
355.600 3.000
355.700 3.000
355.800 0.000
355.900 6.000
356.000 3.000
356.100 3.000
356.200 6.000
356.300 3.000
356.400 0.000
356.500 3.000
356.600 0.000
356.700 3.000
356.800 3.000
356.900 3.000
357.000 0.000
357.100 3.000
357.200 0.000
357.300 6.000
357.400 0.000
357.500 6.000
357.600 3.000
357.700 0.000
357.800 6.000
357.900 0.000
358.000 3.000
358.100 0.000
358.200 6.000
358.300 6.000
358.400 0.000
358.500 0.000
358.600 3.000
358.700 3.000
358.800 6.000
358.900 0.000
359.000 3.000
359.100 9.000
359.200 0.000
359.300 6.000
359.400 12.000
359.500 3.000
359.600 9.000
359.700 12.000
359.800 15.000
359.900 12.000
360.000 24.000
